1.0000e+00
18178.0
12498.0
8879.0
8388.0
7660.0
7534.0
7631.0
7806.0
7854.0
7890.0
7922.0
7924.0
8388.0
9086.0
9875.0
10579.0
11121.0
11601.0
12521.0
12647.0
12401.0
11900.0
11410.0
11017.0
10686.0
10086.0
9846.0
9626.0
9432.0
9269.0
9117.0
9007.0
8776.0
8708.0
8776.0
9015.0
9337.0
9628.0
10049.0
10259.0
10448.0
10508.0
10401.0
10154.0
9893.0
9526.0
9356.0
9238.0
9073.0
9012.0
8944.0
9002.0
9353.0
8100.0
7269.0
10387.0
16695.0
20724.0
13080.0
9086.0
8378.0
8281.0
7709.0
7528.0
7536.0
7788.0
7854.0
7882.0
7919.0
7927.0
7987.0
9002.0
9793.0
10519.0
11066.0
11549.0
12060.0
12485.0
12440.0
11960.0
11460.0
11053.0
10728.0
10406.0
9875.0
9647.0
9455.0
9285.0
9130.0
9023.0
8910.0
8713.0
8761.0
8991.0
9303.0
9605.0
9838.0
10238.0
10429.0
10508.0
10422.0
10180.0
9924.0
9717.0
9374.0
9246.0
9093.0
9010.0
8965.0
8671.0
8923.0
8283.0
7214.0
9843.0
16016.0
20567.0
19182.0
9340.0
8365.0
8328.0
7764.0
7526.0
7539.0
7597.0
7859.0
7877.0
7922.0
7927.0
7969.0
8283.0
9712.0
10448.0
11011.0
11502.0
12002.0
12448.0
12658.0
12021.0
11507.0
11090.0
10762.0
10437.0
10149.0
9668.0
9479.0
9301.0
9151.0
9033.0
8923.0
8808.0
8747.0
8960.0
9264.0
9578.0
9812.0
10005.0
10217.0
10511.0
10437.0
10207.0
9951.0
9733.0
9571.0
9259.0
9117.0
9007.0
8989.0
8698.0
8852.0
9398.0
7203.0
9340.0
15318.0
20338.0
19612.0
14304.0
8362.0
8370.0
7819.0
7528.0
7542.0
7576.0
7759.0
7872.0
7922.0
7924.0
7958.0
8234.0
8837.0
9631.0
10956.0
11447.0
11947.0
12414.0
12650.0
12513.0
11554.0
11132.0
10796.0
10469.0
10180.0
9919.0
9694.0
9316.0
9167.0
9044.0
8936.0
8823.0
8719.0
8928.0
9232.0
9552.0
9791.0
9990.0
10193.0
10390.0
10453.0
10241.0
9977.0
9751.0
9589.0
9405.0
9133.0
9004.0
9004.0
8724.0
8792.0
9387.0
8635.0
8881.0
14611.0
20037.0
19979.0
14941.0
9972.0
8378.0
7880.0
7539.0
7539.0
7563.0
7741.0
7848.0
7919.0
7924.0
7953.0
8184.0
8758.0
9544.0
10298.0
11397.0
11895.0
12345.0
12639.0
12553.0
12229.0
11177.0
10828.0
10508.0
10209.0
9945.0
9723.0
9516.0
9185.0
9052.0
8955.0
8831.0
8726.0
8734.0
9201.0
9516.0
9767.0
9972.0
10167.0
10374.0
10503.0
10275.0
10000.0
9775.0
9610.0
9424.0
9287.0
9149.0
9015.0
8758.0
8742.0
9353.0
8803.0
7308.0
13905.0
19657.0
20289.0
15581.0
10353.0
8415.0
8412.0
7552.0
7539.0
7557.0
7722.0
7838.0
7872.0
7927.0
7943.0
8139.0
8690.0
9458.0
10225.0
10854.0
11842.0
12330.0
12624.0
12582.0
12186.0
11667.0
11221.0
10547.0
10238.0
9974.0
9746.0
9534.0
9358.0
9065.0
8965.0
8844.0
8737.0
8721.0
8876.0
9170.0
9746.0
9951.0
10144.0
10359.0
10495.0
10479.0
10028.0
9799.0
9623.0
9442.0
9301.0
9167.0
9023.0
8795.0
8700.0
9306.0
8955.0
7408.0
8134.0
19216.0
20532.0
16207.0
10778.0
8472.0
8415.0
8019.0
7536.0
7555.0
7699.0
7838.0
7869.0
7901.0
7932.0
8105.0
8619.0
9369.0
10154.0
10791.0
11292.0
12278.0
12613.0
12608.0
12236.0
11722.0
11255.0
10901.0
10267.0
10002.0
9765.0
9555.0
9379.0
9209.0
8973.0
8855.0
8747.0
8711.0
8850.0
9133.0
9447.0
9922.0
10123.0
10335.0
10482.0
10492.0
10319.0
9820.0
9636.0
9466.0
9308.0
9183.0
9031.0
9015.0
8666.0
9243.0
9083.0
7531.0
7846.0
12511.0
18716.0
16820.0
11250.0
8553.0
8409.0
8087.0
7584.0
7547.0
7675.0
7830.0
7861.0
7898.0
7932.0
7927.0
8546.0
9280.0
10076.0
10731.0
11242.0
11735.0
12595.0
12621.0
12291.0
11777.0
11300.0
10938.0
10613.0
10031.0
9786.0
9578.0
9395.0
9225.0
9096.0
8983.0
8758.0
8708.0
8831.0
9093.0
9419.0
9699.0
10107.0
10311.0
10477.0
10503.0
10343.0
10089.0
9841.0
9489.0
9322.0
9206.0
9041.0
9015.0
8879.0
9183.0
9196.0
7683.0
7615.0
11837.0
18165.0
20808.0
11764.0
8669.0
8407.0
8155.0
7612.0
7536.0
7657.0
7825.0
7859.0
7898.0
7932.0
7927.0
8050.0
9198.0
9995.0
10668.0
11195.0
11677.0
12181.0
12569.0
12343.0
11832.0
11347.0
10975.0
10644.0
10335.0
9814.0
9605.0
9411.0
9248.0
9107.0
8994.0
8889.0
8711.0
8810.0
9062.0
9392.0
9673.0
9888.0
10288.0
10466.0
10508.0
10369.0
10123.0
9862.0
9678.0
9337.0
9225.0
9054.0
9017.0
8913.0
8643.0
9280.0
7859.0
7437.0
11197.0
17570.0
20826.0
17992.0
8821.0
8399.0
8218.0
7649.0
7539.0
7539.0
7641.0
7859.0
7895.0
7924.0
7927.0
8021.0
8412.0
9911.0
10608.0
11142.0
11625.0
12229.0
12537.0
12650.0
11887.0
11397.0
11011.0
10678.0
10369.0
10081.0
9626.0
9432.0
9272.0
9120.0
9010.0
8902.0
8776.0
8789.0
9033.0
9358.0
9644.0
9869.0
10060.0
10267.0
10508.0
10395.0
10149.0
9885.0
9702.0
9523.0
9235.0
9067.0
9017.0
8941.0
8648.0
9033.0
9340.0
7308.0
10592.0
16933.0
20771.0
18535.0
12880.0
8383.0
8268.0
7696.0
7536.0
7539.0
7623.0
7796.0
7890.0
7924.0
7930.0
7995.0
8357.0
9036.0
10542.0
11087.0
11570.0
12084.0
12500.0
12658.0
12432.0
11447.0
11043.0
10718.0
10401.0
10110.0
9867.0
9641.0
9445.0
9133.0
9020.0
8907.0
8789.0
8713.0
9002.0
9316.0
9615.0
9848.0
10034.0
10249.0
10435.0
10416.0
10173.0
9917.0
9715.0
9542.0
9371.0
9088.0
9012.0
8960.0
8666.0
8952.0
9379.0
8221.0
10031.0
16265.0
19028.0
13470.0
9251.0
8318.0
7746.0
7528.0
7539.0
7602.0
7778.0
7859.0
7922.0
7930.0
7974.0
8304.0
8947.0
9744.0
10474.0
11523.0
12026.0
12464.0
12660.0
12469.0
12005.0
11080.0
10752.0
10427.0
10138.0
9890.0
9660.0
9474.0
9146.0
9031.0
8918.0
8803.0
8713.0
8753.0
9280.0
9592.0
9822.0
10015.0
10228.0
10419.0
10516.0
10201.0
9943.0
9730.0
9565.0
9387.0
9259.0
9112.0
8986.0
8690.0
8876.0
9400.0
8401.0
7206.0
15570.0
20435.0
19471.0
14089.0
9531.0
8365.0
8357.0
7528.0
7544.0
7584.0
7764.0
7856.0
7875.0
7927.0
7964.0
8255.0
8865.0
9662.0
10403.0
10980.0
11968.0
12432.0
12655.0
12503.0
12060.0
11538.0
10786.0
10461.0
10170.0
9914.0
9686.0
9492.0
9314.0
9044.0
8934.0
8818.0
8719.0
8747.0
8941.0
9248.0
9801.0
9998.0
10204.0
10398.0
10516.0
10448.0
9972.0
9749.0
9586.0
9405.0
9272.0
9130.0
9004.0
8716.0
8813.0
9395.0
8577.0
7224.0
9041.0
20158.0
19861.0
14723.0
9851.0
8373.0
8394.0
7861.0
7547.0
7570.0
7751.0
7846.0
7872.0
7919.0
7956.0
8202.0
8789.0
9576.0
10327.0
10930.0
11418.0
12393.0
12645.0
12542.0
12118.0
11593.0
11166.0
10817.0
10201.0
9935.0
9715.0
9510.0
9335.0
9183.0
8949.0
8829.0
8724.0
8737.0
8910.0
9217.0
9531.0
9820.0
10178.0
10385.0
10508.0
10463.0
10264.0
9770.0
9605.0
9416.0
9287.0
9146.0
9012.0
9015.0
8763.0
9371.0
8750.0
7282.0
8611.0
14154.0
19801.0
15360.0
10214.0
8401.0
8409.0
7924.0
7547.0
7560.0
7730.0
7843.0
7872.0
7911.0
7930.0
7948.0
8716.0
9489.0
10254.0
10872.0
11360.0
11863.0
12629.0
12574.0
12167.0
11648.0
11205.0
10849.0
10534.0
9966.0
9736.0
9526.0
9353.0
9193.0
9062.0
8837.0
8737.0
8726.0
8884.0
9183.0
9497.0
9757.0
10152.0
10367.0
10498.0
10479.0
10293.0
10018.0
9796.0
9440.0
9301.0
9159.0
9020.0
9017.0
8787.0
9327.0
8905.0
7371.0
8247.0
13452.0
19381.0
20462.0
10626.0
8454.0
8417.0
7995.0
7565.0
7539.0
7709.0
7840.0
7872.0
7906.0
7932.0
7940.0
8118.0
9400.0
10183.0
10817.0
11313.0
11814.0
12299.0
12600.0
12220.0
11706.0
11245.0
10888.0
10571.0
10256.0
9759.0
9552.0
9377.0
9209.0
9080.0
8973.0
8852.0
8716.0
8863.0
9149.0
9463.0
9738.0
9935.0
10346.0
10487.0
10492.0
10314.0
10052.0
9817.0
9633.0
9311.0
9183.0
9033.0
9020.0
8829.0
8679.0
9044.0
7487.0
7945.0
12757.0
18902.0
20658.0
16608.0
8525.0
8415.0
8068.0
7578.0
7539.0
7552.0
7686.0
7867.0
7901.0
7935.0
7930.0
8087.0
8572.0
10107.0
10752.0
11260.0
11756.0
12246.0
12603.0
12618.0
11758.0
11281.0
10927.0
10600.0
10288.0
10020.0
9573.0
9390.0
9222.0
9093.0
8981.0
8871.0
8755.0
8839.0
9107.0
9432.0
9710.0
9911.0
10115.0
10482.0
10503.0
10335.0
10081.0
9833.0
9654.0
9484.0
9201.0
9038.0
9017.0
8868.0
8653.0
9209.0
9159.0
7694.0
12070.0
18367.0
20781.0
17214.0
11583.0
8409.0
8134.0
7602.0
7539.0
7542.0
7665.0
7830.0
7901.0
7932.0
7927.0
8058.0
8498.0
9230.0
10689.0
11213.0
11696.0
12199.0
12579.0
12631.0
12327.0
11331.0
10964.0
10631.0
10325.0
10047.0
9807.0
9405.0
9243.0
9104.0
8991.0
8886.0
8763.0
8713.0
9075.0
9403.0
9681.0
9896.0
10094.0
10298.0
10474.0
10361.0
10115.0
9856.0
9673.0
9502.0
9332.0
9049.0
9020.0
8899.0
8643.0
9138.0
9251.0
7798.0
11418.0
17785.0
20829.0
17798.0
12115.0
8763.0
8357.0
7639.0
7539.0
7539.0
7649.0
7819.0
7859.0
7927.0
7932.0
8032.0
8436.0
9149.0
9943.0
10631.0
11646.0
12154.0
12548.0
12647.0
12375.0
11866.0
10998.0
10671.0
10361.0
10073.0
9835.0
9618.0
9426.0
9114.0
9010.0
8899.0
8774.0
8716.0
8795.0
9371.0
9654.0
9877.0
10068.0
10277.0
10463.0
10508.0
10138.0
9880.0
9696.0
9518.0
9350.0
9232.0
9020.0
8931.0
8648.0
9062.0
9324.0
7979.0
7348.0
17161.0
20800.0
18354.0
12676.0
8941.0
8388.0
8252.0
7536.0
7539.0
7631.0
7801.0
7861.0
7893.0
7932.0
8003.0
8375.0
9065.0
9856.0
10568.0
11106.0
12102.0
12513.0
12658.0
12416.0
11924.0
11431.0
10707.0
10390.0
10102.0
9862.0
9636.0
9447.0
9280.0
9020.0
8907.0
8789.0
8716.0
8776.0
9017.0
9628.0
9859.0
10044.0
10262.0
10445.0
10516.0
10416.0
9911.0
9712.0
9539.0
9371.0
9243.0
9088.0
9017.0
8664.0
8983.0
9374.0
8160.0
7251.0
10230.0
20700.0
18860.0
13263.0
9167.0
8375.0
8302.0
7733.0
7544.0
7610.0
7785.0
7861.0
7882.0
7927.0
7985.0
8323.0
8978.0
9772.0
10500.0
11051.0
11544.0
12290.0
12663.0
12456.0
11987.0
11475.0
11066.0
10744.0
10133.0
9885.0
9657.0
9468.0
9293.0
9146.0
8915.0
8805.0
8716.0
8763.0
8986.0
9295.0
9602.0
10023.0
10238.0
10424.0
10519.0
10427.0
10193.0
9725.0
9560.0
9382.0
9349.0
9107.0
9010.0
8978.0
8902.0
9400.0
8339.0
7209.0
9686.0
15811.0
19321.0
13871.0
9429.0
8362.0
8346.0
7783.0
7528.0
7586.0
7772.0
7854.0
7875.0
7924.0
7927.0
7969.0
8892.0
9694.0
10427.0
10998.0
11491.0
11987.0
12655.0
12490.0
12042.0
11520.0
11108.0
10773.0
10450.0
9904.0
9681.0
9487.0
9306.0
9162.0
9036.0
8813.0
8713.0
8750.0
8949.0
9259.0
9573.0
9807.0
10209.0
10406.0
10513.0
10440.0
10225.0
9959.0
9581.0
9395.0
9269.0
9125.0
9007.0
8996.0
9400.0
8517.0
7214.0
9196.0
15109.0
20262.0
19730.0
9733.0
8367.0
8383.0
7840.0
7536.0
7542.0
7757.0
7848.0
7875.0
7922.0
7927.0
7961.0
8218.0
9607.0
10353.0
10948.0
11433.0
11937.0
12406.0
12532.0
12094.0
11572.0
11150.0
10807.0
10487.0
10191.0
9710.0
9505.0
9329.0
9175.0
9046.0
8947.0
8826.0
8742.0
8918.0
9230.0
9542.0
9786.0
9987.0
10390.0
10511.0
10458.0
10256.0
9985.0
9765.0
9599.0
9282.0
9138.0
9012.0
9012.0
8737.0
8782.0
8692.0
7261.0
8755.0
14406.0
19935.0
20087.0
15140.0
8391.0
8404.0
7903.0
7547.0
7539.0
7565.0
7843.0
7875.0
7914.0
7930.0
7951.0
8171.0
8745.0
10283.0
10896.0
11381.0
11887.0
12361.0
12637.0
12566.0
11633.0
11192.0
10841.0
10526.0
10214.0
9959.0
9523.0
9350.0
9188.0
9059.0
8960.0
8837.0
8737.0
8894.0
9196.0
9508.0
9767.0
9966.0
10165.0
10500.0
10477.0
10280.0
10010.0
9788.0
9613.0
9434.0
9156.0
9020.0
9015.0
8774.0
8732.0
9340.0
7334.0
8375.0
13698.0
19536.0
20378.0
15769.0
10479.0
8412.0
7972.0
7557.0
7539.0
7560.0
7715.0
7840.0
7906.0
7932.0
7937.0
8131.0
8669.0
9429.0
10833.0
11329.0
11832.0
12312.0
12626.0
12592.0
12204.0
11226.0
10878.0
10555.0
10246.0
9990.0
9749.0
9369.0
9198.0
9075.0
8968.0
8850.0
8745.0
8719.0
9159.0
9474.0
9744.0
9938.0
10144.0
10351.0
10492.0
10304.0
10041.0
9807.0
9628.0
9460.0
9306.0
9028.0
9017.0
8816.0
8690.0
9293.0
9002.0
7442.0
12996.0
19075.0
20601.0
16393.0
10922.0
8496.0
8045.0
7570.0
7539.0
7552.0
7691.0
7840.0
7864.0
7932.0
7932.0
8100.0
8595.0
9343.0
10133.0
11284.0
11774.0
12264.0
12610.0
12608.0
12097.0
11740.0
10914.0
10587.0
10280.0
10013.0
9770.0
9568.0
9382.0
9088.0
8976.0
8868.0
8750.0
8713.0
8850.0
9445.0
9720.0
9919.0
10123.0
10327.0
10487.0
10500.0
10073.0
9825.0
9649.0
9479.0
9314.0
9196.0
9017.0
8852.0
8658.0
9232.0
9120.0
7581.0
7775.0
18561.0
20750.0
17007.0
11410.0
8582.0
8415.0
7594.0
7542.0
7544.0
7673.0
7833.0
7861.0
7903.0
7930.0
8071.0
8525.0
9264.0
10055.0
10713.0
11234.0
12220.0
12587.0
12626.0
12312.0
11793.0
11318.0
10621.0
10314.0
10036.0
9799.0
9592.0
9398.0
9240.0
8986.0
8881.0
8758.0
8713.0
8823.0
9088.0
9691.0
9904.0
10099.0
10306.0
10482.0
10503.0
10356.0
9846.0
9670.0
9495.0
9329.0
9214.0
9044.0
9023.0
8648.0
9167.0
9222.0
7743.0
7555.0
11643.0
20821.0
17604.0
11929.0
8711.0
8407.0
8173.0
7628.0
7542.0
7657.0
7819.0
7861.0
7901.0
7930.0
8040.0
8462.0
9183.0
9972.0
10655.0
11182.0
11664.0
12558.0
12645.0
12359.0
11850.0
11368.0
10983.0
10351.0
10062.0
9827.0
9610.0
9419.0
9256.0
9109.0
8892.0
8768.0
8716.0
8800.0
9057.0
9382.0
9665.0
10076.0
10288.0
10466.0
10508.0
10385.0
10128.0
9689.0
9510.0
9348.0
9225.0
9059.0
9020.0
8918.0
9088.0
9301.0
7914.0
7387.0
11017.0
17387.0
18165.0
12474.0
8879.0
8394.0
8231.0
7667.0
7531.0
7639.0
7806.0
7864.0
7890.0
7927.0
7932.0
8401.0
9093.0
9885.0
10592.0
11124.0
11614.0
12120.0
12658.0
12401.0
11908.0
11415.0
11017.0
10665.0
10377.0
9854.0
9628.0
9442.0
9272.0
9122.0
9017.0
8787.0
8716.0
8848.0
9031.0
9345.0
9641.0
9864.0
10267.0
10448.0
10513.0
10406.0
10154.0
9904.0
9531.0
9361.0
9238.0
9080.0
9017.0
8947.0
8658.0
9361.0
8095.0
7277.0
10424.0
16731.0
20745.0
18687.0
9086.0
8375.0
8289.0
7715.0
7531.0
7547.0
7793.0
7861.0
7885.0
7930.0
7932.0
7992.0
8344.0
9807.0
10524.0
11072.0
11564.0
12065.0
12495.0
12443.0
11971.0
11460.0
11059.0
10731.0
10406.0
10123.0
9649.0
9463.0
9285.0
9141.0
9025.0
8915.0
8716.0
8771.0
8996.0
9308.0
9615.0
9838.0
10034.0
10429.0
10516.0
10419.0
10186.0
9927.0
9717.0
9555.0
9251.0
9099.0
9010.0
8976.0
8671.0
8931.0
8273.0
7222.0
9869.0
16052.0
20590.0
19164.0
13662.0
8365.0
8336.0
7762.0
7531.0
7544.0
7594.0
7856.0
7880.0
7927.0
7924.0
7977.0
8286.0
8920.0
10450.0
11019.0
11509.0
12005.0
12458.0
12655.0
12023.0
11504.0
11095.0
10760.0
10437.0
10152.0
9896.0
9479.0
9301.0
9154.0
9031.0
8928.0
8808.0
8713.0
8957.0
9274.0
9584.0
9814.0
10015.0
10214.0
10516.0
10435.0
10217.0
9948.0
9736.0
9576.0
9390.0
9114.0
9007.0
8994.0
8692.0
8863.0
9400.0
7209.0
9358.0
15358.0
20362.0
19594.0
14286.0
9620.0
8373.0
7817.0
7536.0
7539.0
7581.0
7767.0
7851.0
7922.0
7927.0
7966.0
8234.0
8844.0
9636.0
10969.0
11452.0
11955.0
12422.0
12650.0
12524.0
12076.0
11137.0
10794.0
10479.0
10178.0
9922.0
9702.0
9324.0
9167.0
9041.0
8944.0
8818.0
8724.0
8745.0
9243.0
9550.0
9796.0
9995.0
10191.0
10401.0
10456.0
10246.0
9974.0
9759.0
9592.0
9408.0
9280.0
9012.0
9007.0
8724.0
8803.0
9387.0
8635.0
7238.0
14658.0
20058.0
19971.0
14917.0
9953.0
8386.0
7882.0
7544.0
7539.0
7576.0
7746.0
7848.0
7877.0
7932.0
7953.0
8189.0
8771.0
9547.0
10309.0
11399.0
11905.0
12375.0
12645.0
12555.0
12128.0
11617.0
10828.0
10513.0
10207.0
9953.0
9720.0
9516.0
9183.0
9059.0
8952.0
8831.0
8734.0
8729.0
8905.0
9518.0
9778.0
9972.0
10173.0
10380.0
10503.0
10474.0
10002.0
9780.0
9605.0
9290.0
9151.0
9012.0
8763.0
8747.0
9358.0
8803.0
7300.0
8501.0
19680.0
20289.0
15546.0
10338.0
8420.0
8412.0
7552.0
7539.0
7565.0
7722.0
7851.0
7875.0
7911.0
7940.0
8150.0
8698.0
9460.0
10238.0
10854.0
11350.0
12327.0
12637.0
12579.0
12186.0
11669.0
11213.0
10545.0
10238.0
9982.0
9744.0
9542.0
9361.0
9196.0
8962.0
8852.0
8742.0
8724.0
8884.0
9167.0
9757.0
9948.0
10154.0
10359.0
10498.0
10487.0
10296.0
9799.0
9626.0
9455.0
9301.0
9175.0
9025.0
8805.0
8703.0
9314.0
8952.0
7403.0
8158.0
13237.0
20532.0
16178.0
10768.0
8470.0
8415.0
8021.0
7563.0
7552.0
7699.0
7843.0
7864.0
7909.0
7932.0
8113.0
8616.0
9377.0
10159.0
10794.0
11300.0
11790.0
12618.0
12603.0
12241.0
11719.0
11255.0
10904.0
10270.0
10002.0
9762.0
9563.0
9374.0
9214.0
9080.0
8863.0
8745.0
8719.0
8858.0
9130.0
9458.0
9930.0
10128.0
10332.0
10492.0
10492.0
10319.0
10062.0
9647.0
9468.0
9311.0
9193.0
9028.0
9023.0
8839.0
9261.0
9080.0
7531.0
7864.0
12540.0
18750.0
16797.0
11234.0
8548.0
8417.0
8084.0
7584.0
7542.0
7681.0
7833.0
7861.0
7906.0
7927.0
7932.0
8548.0
9293.0
10078.0
10734.0
11250.0
11735.0
12238.0
12624.0
12293.0
11772.0
11302.0
10935.0
10610.0
10304.0
9793.0
9578.0
9392.0
9235.0
9091.0
8986.0
8753.0
8716.0
8829.0
9101.0
9426.0
9696.0
9911.0
10314.0
10482.0
10498.0
10353.0
10094.0
9841.0
9484.0
9327.0
9206.0
9038.0
9025.0
8873.0
8653.0
9185.0
7688.0
7623.0
11874.0
18202.0
20805.0
11740.0
8664.0
8412.0
8147.0
7618.0
7539.0
7542.0
7822.0
7864.0
7903.0
7930.0
7935.0
8045.0
8485.0
9998.0
10678.0
11197.0
11685.0
12191.0
12566.0
12340.0
11827.0
11350.0
10777.0
10650.0
10335.0
10055.0
9599.0
9416.0
9251.0
9104.0
9002.0
8886.0
8716.0
8712.0
9073.0
9392.0
9675.0
9896.0
10081.0
10469.0
10508.0
10377.0
10117.0
9867.0
9683.0
9505.0
9219.0
9057.0
9023.0
8907.0
8650.0
9114.0
7854.0
7442.0
11237.0
17604.0
20831.0
17974.0
12278.0
8396.0
8213.0
7654.0
7534.0
7542.0
7641.0
7864.0
7890.0
7927.0
7930.0
8019.0
8422.0
9117.0
10616.0
11142.0
11633.0
12136.0
12537.0
12655.0
11890.0
11394.0
11006.0
10684.0
10364.0
10083.0
9841.0
9437.0
9264.0
9120.0
9010.0
8897.0
8784.0
8713.0
9038.0
9353.0
9652.0
9869.0
10062.0
10275.0
10513.0
10395.0
9984.0
9893.0
9694.0
9529.0
9356.0
9075.0
9015.0
8941.0
8653.0
9033.0
9343.0
7314.0
10533.0
16962.0
20784.0
18509.0
12852.0
9012.0
8270.0
7696.0
7531.0
7547.0
7620.0
7801.0
7885.0
7932.0
7927.0
8000.0
8365.0
9033.0
9835.0
11090.0
11580.0
12081.0
12508.0
12658.0
12427.0
11947.0
11048.0
10718.0
10395.0
10115.0
9864.0
9647.0
9282.0
9141.0
9020.0
8913.0
8797.0
8711.0
8779.0
9322.0
9626.0
9846.0
10044.0
10254.0
10437.0
10414.0
10180.0
9917.0
9712.0
9550.0
9369.0
9248.0
9012.0
8970.0
8664.0
8957.0
9387.0
8207.0
7243.0
16294.0
20658.0
19004.0
13452.0
9240.0
8370.0
7741.0
7534.0
7542.0
7599.0
7788.0
7854.0
7882.0
7927.0
7985.0
8304.0
8952.0
9754.0
10477.0
11525.0
12026.0
12474.0
12655.0
12474.0
12005.0
11488.0
10747.0
10432.0
10144.0
9888.0
9673.0
9471.0
9151.0
9028.0
8931.0
8808.0
8716.0
8763.0
8968.0
9592.0
9825.0
10023.0
10225.0
10424.0
10516.0
10432.0
9940.0
9736.0
9568.0
9384.0
9266.0
9107.0
8989.0
8685.0
8889.0
9400.0
8394.0
7211.0
9531.0
20446.0
19450.0
14068.0
9513.0
8370.0
8362.0
7539.0
7542.0
7589.0
7772.0
7851.0
7882.0
7919.0
7972.0
8252.0
8879.0
9668.0
10408.0
10990.0
11979.0
12432.0
12655.0
12513.0
12055.0
11544.0
11121.0
10469.0
10170.0
9917.0
9694.0
9489.0
9324.0
9164.0
8941.0
8816.0
8726.0
8747.0
8941.0
9259.0
9809.0
10002.0
10204.0
10411.0
10511.0
10450.0
10238.0
9754.0
9584.0
9405.0
9277.0
9125.0
9017.0
8716.0
8826.0
9395.0
8577.0
7222.0
9059.0
14907.0
19853.0
14694.0
9833.0
8383.0
8388.0
7861.0
7542.0
7581.0
7749.0
7851.0
7880.0
7916.0
7935.0
8207.0
8800.0
9578.0
10338.0
10933.0
11420.0
11926.0
12650.0
12545.0
12112.0
11596.0
11161.0
10820.0
10196.0
9945.0
9715.0
9513.0
9340.0
9177.0
9059.0
8829.0
8729.0
8734.0
8918.0
9219.0
9531.0
9977.0
10183.0
10387.0
10505.0
10469.0
10262.0
9995.0
9599.0
9426.0
9285.0
9149.0
9017.0
9010.0
8753.0
9371.0
8747.0
7274.0
8643.0
14196.0
19822.0
15324.0
10201.0
8404.0
8407.0
7930.0
7549.0
7544.0
7730.0
7851.0
7872.0
7914.0
7935.0
7943.0
8721.0
9492.0
10264.0
10872.0
11371.0
11869.0
12346.0
12569.0
12170.0
11648.0
11200.0
10859.0
10532.0
9972.0
9733.0
9537.0
9353.0
9193.0
9067.0
8955.0
8737.0
8726.0
8892.0
9177.0
9505.0
9759.0
9956.0
10361.0
10503.0
10484.0
10285.0
10026.0
9788.0
9445.0
9295.0
9167.0
9017.0
9017.0
8792.0
8713.0
8897.0
7363.0
8436.0
13483.0
19408.0
20454.0
10616.0
8446.0
8420.0
7995.0
7557.0
7544.0
7552.0
7846.0
7861.0
7911.0
7930.0
7940.0
8129.0
8643.0
10183.0
10815.0
11321.0
11811.0
12301.0
12624.0
12225.0
11696.0
11242.0
10888.0
10560.0
10259.0
9990.0
9555.0
9366.0
9211.0
9075.0
8968.0
8860.0
8724.0
8863.0
9146.0
9474.0
9730.0
9940.0
10136.0
10490.0
10314.0
10055.0
9812.0
9644.0
9308.0
9188.0
9025.0
9025.0
8826.0
8679.0
9280.0
7487.0
7958.0
12783.0
18933.0
20650.0
16587.0
11066.0
8422.0
8061.0
7578.0
7542.0
7544.0
7694.0
7867.0
7911.0
7930.0
7937.0
8092.0
8574.0
9327.0
10762.0
11268.0
11756.0
12259.0
12600.0
12618.0
11753.0
11289.0
10922.0
10600.0
10293.0
10015.0
9786.0
9390.0
9232.0
9091.0
8986.0
8871.0
8755.0
8837.0
9120.0
9440.0
9710.0
9924.0
10112.0
10327.0
10498.0
10346.0
10081.0
9833.0
9657.0
9476.0
9324.0
9036.0
9023.0
8858.0
8661.0
9214.0
9154.0
7699.0
12107.0
18399.0
20776.0
17195.0
11554.0
8624.0
8129.0
7610.0
7539.0
7547.0
7673.0
7825.0
7901.0
7930.0
7935.0
8055.0
8509.0
9238.0
10026.0
11211.0
11703.0
12207.0
12576.0
12639.0
12322.0
11811.0
10959.0
10639.0
10322.0
10047.0
9812.0
9592.0
9243.0
9104.0
8999.0
8879.0
8766.0
8716.0
8816.0
9400.0
9686.0
9898.0
10089.0
10306.0
10469.0
10367.0
10104.0
9859.0
9673.0
9500.0
9340.0
9211.0
9020.0
8897.0
8650.0
9135.0
9251.0
7788.0
11457.0
17811.0
20831.0
17777.0
12084.0
8763.0
8396.0
7639.0
7534.0
7547.0
7646.0
7814.0
7864.0
7890.0
7930.0
8029.0
8446.0
9146.0
9948.0
10634.0
11654.0
12152.0
12550.0
12647.0
12364.0
11871.0
11373.0
10671.0
10348.0
10078.0
9830.0
9613.0
9429.0
9117.0
9004.0
8892.0
8779.0
8708.0
8800.0
9046.0
9662.0
9875.0
10068.0
10283.0
10453.0
10516.0
10136.0
9883.0
9686.0
9523.0
9350.0
9227.0
9070.0
8934.0
8648.0
9059.0
9327.0
7961.0
7353.0
10836.0
20810.0
18323.0
12647.0
8939.0
8386.0
8257.0
7534.0
7547.0
7628.0
7809.0
7859.0
7888.0
7932.0
8011.0
8383.0
8969.0
9867.0
10566.0
11111.0
12097.0
12521.0
12652.0
12414.0
11924.0
11420.0
11035.0
10385.0
10104.0
9851.0
9639.0
9445.0
9274.0
9133.0
8910.0
8789.0
8711.0
8784.0
9012.0
9337.0
9854.0
10052.0
10254.0
10443.0
10516.0
10403.0
10170.0
9707.0
9542.0
9361.0
9246.0
9083.0
9012.0
8656.0
8989.0
9371.0
8145.0
7261.0
10249.0
16535.0
18831.0
13242.0
9151.0
8375.0
8307.0
7722.0
7542.0
7610.0
7796.0
7856.0
7885.0
7927.0
7930.0
8323.0
8986.0
9783.0
10500.0
11061.0
11541.0
12209.0
12655.0
12461.0
11981.0
11470.0
11069.0
10734.0
10128.0
9880.0
9662.0
9460.0
9295.0
9143.0
9023.0
8797.0
8716.0
8766.0
8978.0
9301.0
9597.0
10028.0
10230.0
10429.0
10511.0
10424.0
10196.0
9927.0
9557.0
9377.0
9259.0
9099.0
9012.0
8978.0
8913.0
9392.0
8331.0
7214.0
9707.0
15853.0
20527.0
13850.0
9408.0
8370.0
8344.0
7778.0
7536.0
7539.0
7775.0
7854.0
7885.0
7919.0
7932.0
7974.0
8905.0
9694.0
10432.0
11009.0
11488.0
12000.0
12443.0
12498.0
12036.0
11528.0
11108.0
10773.0
10456.0
9909.0
9683.0
9484.0
9314.0
9154.0
9038.0
8934.0
8724.0
8747.0
8952.0
9266.0
9571.0
9820.0
10005.0
10414.0
10511.0
10448.0
10222.0
9956.0
9749.0
9400.0
9269.0
9117.0
9015.0
8994.0
8708.0
8844.0
8517.0
7206.0
9219.0
15153.0
20276.0
19722.0
9715.0
8375.0
8373.0
7840.0
7534.0
7542.0
7581.0
7854.0
7875.0
7914.0
7932.0
7956.0
8221.0
9602.0
10364.0
10946.0
11436.0
11942.0
12401.0
12655.0
12094.0
11578.0
11142.0
10810.0
10487.0
10186.0
9938.0
9508.0
9329.0
9170.0
9054.0
8939.0
8823.0
8734.0
8928.0
9227.0
9542.0
9793.0
9985.0
10193.0
10508.0
10466.0
10249.0
9990.0
9765.0
9594.0
9280.0
9143.0
9015.0
9007.0
8742.0
8779.0
9384.0
7248.0
8787.0
14440.0
19953.0
20076.0
15103.0
8391.0
8401.0
7909.0
7542.0
7544.0
7568.0
7733.0
7867.0
7916.0
7932.0
7945.0
8184.0
8742.0
9523.0
10891.0
11389.0
11884.0
12361.0
12645.0
12558.0
11627.0
11184.0
10844.0
10516.0
10220.0
9959.0
9725.0
9343.0
9188.0
9062.0
8952.0
8842.0
8729.0
8899.0
9190.0
9518.0
9765.0
9964.0
10170.0
10367.0
10474.0
10277.0
10015.0
9780.0
9618.0
9437.0
9293.0
9012.0
9017.0
8776.0
8726.0
9353.0
8844.0
8396.0
13730.0
19565.0
20365.0
15740.0
10466.0
8425.0
7972.0
7555.0
7547.0
7555.0
7717.0
7843.0
7914.0
7927.0
7943.0
8137.0
8666.0
9440.0
10207.0
11336.0
11827.0
12319.0
12626.0
12584.0
12204.0
11229.0
10875.0
10550.0
10251.0
9980.0
9751.0
9544.0
9209.0
9070.0
8968.0
8852.0
8737.0
8726.0
8868.0
9481.0
9738.0
9948.0
10141.0
10348.0
10498.0
10309.0
10041.0
9804.0
9636.0
9450.0
9306.0
9180.0
9025.0
8808.0
8692.0
9298.0
8986.0
7445.0
13025.0
19106.0
20587.0
16372.0
10904.0
8491.0
8425.0
7576.0
7544.0
7552.0
7701.0
7838.0
7867.0
7930.0
7940.0
8100.0
8601.0
9353.0
10131.0
10783.0
11774.0
12272.0
12603.0
12613.0
12254.0
11732.0
11276.0
10592.0
10277.0
10007.0
9778.0
9560.0
9384.0
9083.0
8983.0
8863.0
8753.0
8719.0
8844.0
9128.0
9717.0
9930.0
10117.0
10335.0
10484.0
10495.0
10068.0
9830.0
9652.0
9471.0
9322.0
9190.0
9036.0
8847.0
8669.0
9232.0
9114.0
7581.0
7783.0
12346.0
20742.0
16986.0
11376.0
8588.0
8417.0
8105.0
7536.0
7547.0
7675.0
7827.0
7869.0
7898.0
7932.0
8063.0
8532.0
9264.0
10055.0
10720.0
11229.0
12220.0
12582.0
12631.0
12301.0
11793.0
11315.0
10943.0
10306.0
10039.0
9801.0
9586.0
9405.0
9232.0
8994.0
8873.0
8766.0
8711.0
8826.0
9411.0
9901.0
10099.0
10317.0
10474.0
10505.0
10356.0
10096.0
9662.0
9495.0
9335.0
9209.0
9052.0
9017.0
8653.0
9164.0
9225.0
7730.0
7565.0
11685.0
18026.0
17575.0
11897.0
8713.0
8404.0
8173.0
7628.0
7549.0
7654.0
7825.0
7864.0
7893.0
7932.0
7930.0
8470.0
9175.0
9980.0
10655.0
11182.0
11675.0
12563.0
12645.0
12354.0
11853.0
11357.0
10985.0
10657.0
10068.0
9822.0
9613.0
9424.0
9251.0
9114.0
8999.0
8774.0
8711.0
8810.0
9057.0
9382.0
9675.0
10081.0
10288.0
10461.0
10516.0
10374.0
10128.0
9875.0
9518.0
9343.0
9225.0
9062.0
9012.0
8920.0
9088.0
9301.0
7898.0
7400.0
11043.0
17413.0
20829.0
12451.0
8868.0
8388.0
8234.0
7660.0
7536.0
7542.0
7812.0
7856.0
7890.0
7930.0
7924.0
8019.0
9093.0
9893.0
10587.0
11132.0
11614.0
12118.0
12532.0
12401.0
11905.0
11405.0
11022.0
10686.0
10374.0
9843.0
9633.0
9434.0
9269.0
9125.0
9007.0
8905.0
8711.0
8787.0
9017.0
9348.0
9639.0
9862.0
10259.0
10450.0
10511.0
10395.0
10157.0
9890.0
9699.0
9356.0
9240.0
9073.0
9012.0
8947.0
8648.0
9015.0
8082.0
7287.0
10443.0
16768.0
20750.0
18661.0
9067.0
8383.0
8286.0
7704.0
7534.0
7539.0
7615.0
7856.0
7890.0
7924.0
7927.0
7995.0
8339.0
9807.0
10521.0
11080.0
11557.0
12068.0
12495.0
12655.0
11958.0
11457.0
11056.0
10723.0
10408.0
10115.0
9649.0
9453.0
9287.0
9133.0
9020.0
8918.0
8792.0
8768.0
8991.0
9314.0
9607.0
9843.0
10031.0
10238.0
10511.0
10419.0
10186.0
9917.0
9723.0
9547.0
9253.0
9088.0
9012.0
8968.0
8666.0
8936.0
9384.0
7219.0
9893.0
16094.0
20595.0
19151.0
13633.0
8373.0
8328.0
7759.0
7534.0
7536.0
7599.0
7775.0
7880.0
7919.0
7930.0
7974.0
8286.0
8934.0
9720.0
11019.0
11504.0
12015.0
12456.0
12660.0
12482.0
11507.0
11090.0
10760.0
10443.0
10144.0
9898.0
9668.0
9306.0
9149.0
9036.0
8923.0
8805.0
8721.0
8970.0
9282.0
9586.0
9830.0
10013.0
10228.0
10419.0
10445.0
10217.0
9953.0
9744.0
9571.0
9398.0
9117.0
9017.0
8991.0
8700.0
8868.0
9403.0
8456.0
9392.0
15400.0
20375.0
19586.0
14251.0
9610.0
8370.0
7819.0
7531.0
7542.0
7586.0
7759.0
7856.0
7922.0
7932.0
7958.0
8242.0
8850.0
9639.0
10390.0
11457.0
11958.0
12416.0
12658.0
12516.0
12076.0
11129.0
10796.0
10471.0
10178.0
9927.0
9694.0
9500.0
9167.0
9046.0
8936.0
8823.0
8724.0
8742.0
9235.0
9555.0
9799.0
9990.0
10201.0
10395.0
10511.0
10235.0
9977.0
9751.0
9589.0
9411.0
9272.0
9135.0
9004.0
8726.0
8795.0
9390.0
8624.0
7232.0
14687.0
20076.0
19956.0
14881.0
9943.0
8378.0
8396.0
7536.0
7549.0
7568.0
7743.0
7851.0
7869.0
7930.0
7951.0
8194.0
8768.0
9555.0
10311.0
10912.0
11903.0
12380.0
12647.0
12548.0
12133.0
11606.0
11174.0
10503.0
10209.0
9945.0
9717.0
9518.0
9335.0
9054.0
8949.0
8837.0
8726.0
8737.0
8907.0
9206.0
9772.0
9974.0
10175.0
10374.0
10511.0
10466.0
10002.0
9772.0
9613.0
9424.0
9287.0
9154.0
9012.0
8758.0
8745.0
9363.0
8787.0
7303.0
8522.0
19707.0
20268.0
15520.0
10322.0
8409.0
8415.0
7943.0
7544.0
7557.0
7725.0
7846.0
7872.0
7916.0
7927.0
8150.0
8698.0
9471.0
10233.0
10857.0
11350.0
12338.0
12631.0
12582.0
12186.0
11661.0
11218.0
10862.0
10241.0
9972.0
9746.0
9537.0
9358.0
9201.0
8968.0
8850.0
8737.0
8729.0
8879.0
9175.0
9492.0
9959.0
10152.0
10364.0
10503.0
10482.0
10301.0
9799.0
9631.0
9445.0
9306.0
9170.0
9020.0
9023.0
8708.0
9316.0
8941.0
7400.0
8165.0
13274.0
19269.0
16152.0
10739.0
8464.0
8420.0
8011.0
7570.0
7555.0
7707.0
7835.0
7869.0
7903.0
7930.0
7940.0
8624.0
9379.0
10159.0
10804.0
11297.0
11795.0
12613.0
12605.0
12233.0
11717.0
11258.0
10896.0
10579.0
10000.0
9770.0
9552.0
9379.0
9211.0
9080.0
8976.0
8747.0
8719.0
8852.0
9138.0
9455.0
9725.0
10125.0
10343.0
10487.0
10492.0
10322.0
10055.0
9822.0
9466.0
9316.0
9183.0
9031.0
9017.0
8834.0
9253.0
9075.0
7523.0
7872.0
12587.0
18773.0
20700.0
11203.0
8551.0
8415.0
8082.0
7586.0
7536.0
7681.0
7833.0
7869.0
7901.0
7935.0
7935.0
8076.0
9290.0
10086.0
10739.0
11245.0
11743.0
12233.0
12592.0
12280.0
11772.0
11294.0
10930.0
10608.0
10293.0
9786.0
9576.0
9395.0
9225.0
9096.0
8983.0
8868.0
8711.0
8834.0
9101.0
9421.0
9707.0
9909.0
10319.0
10477.0
10505.0
10346.0
10089.0
9841.0
9654.0
9324.0
9204.0
9046.0
9017.0
8876.0
8653.0
9188.0
7670.0
7639.0
11911.0
18226.0
20808.0
17366.0
8661.0
8404.0
8152.0
7612.0
7536.0
7547.0
7660.0
7861.0
7895.0
7932.0
7927.0
8050.0
8485.0
10005.0
10673.0
11200.0
11688.0
12186.0
12574.0
12634.0
11829.0
11342.0
10975.0
10644.0
10330.0
10057.0
9602.0
9413.0
9246.0
9112.0
8994.0
8889.0
8768.0
8816.0
9067.0
9395.0
9678.0
9890.0
10091.0
10296.0
10511.0
10369.0
10123.0
9862.0
9678.0
9510.0
9225.0
9057.0
9017.0
8910.0
8643.0
9120.0
9277.0
7455.0
11260.0
17633.0
20837.0
17942.0
12259.0
8399.0
8215.0
7646.0
7539.0
7542.0
7641.0
7819.0
7898.0
7930.0
7930.0
8029.0
8422.0
9130.0
10613.0
11150.0
11630.0
12141.0
12545.0
12647.0
12390.0
11394.0
11011.0
10678.0
10369.0
10083.0
9841.0
9626.0
9269.0
9122.0
8905.0
8779.0
8716.0
9036.0
9363.0
9652.0
9875.0
10068.0
10272.0
10461.0
10393.0
10152.0
9888.0
9699.0
9526.0
9353.0
9070.0
9017.0
8939.0
8648.0
9046.0
9337.0
8024.0
10652.0
17004.0
20787.0
18485.0
12828.0
8994.0
8268.0
7691.0
7536.0
7539.0
7625.0
7801.0
7859.0
7927.0
7935.0
8006.0
8362.0
9046.0
9835.0
10550.0
11578.0
12091.0
12508.0
12660.0
12432.0
11942.0
11043.0
10715.0
10401.0
10110.0
9867.0
9644.0
9453.0
9130.0
9023.0
8913.0
8792.0
8719.0
8774.0
9327.0
9618.0
9854.0
10039.0
10251.0
10443.0
10513.0
10175.0
9914.0
9717.0
9542.0
9374.0
9251.0
9088.0
8960.0
8664.0
8965.0
9382.0
8207.0
7235.0
16336.0
20661.0
18988.0
13418.0
9227.0
8375.0
8315.0
7534.0
7544.0
7610.0
7783.0
7859.0
7885.0
7935.0
7982.0
8312.0
8960.0
9751.0
10484.0
11040.0
12034.0
12469.0
12663.0
12466.0
12000.0
11491.0
10752.0
10429.0
10136.0
9890.0
9662.0
9474.0
9301.0
9033.0
8920.0
8805.0
8719.0
8758.0
8978.0
9287.0
9830.0
10018.0
10233.0
10422.0
10513.0
10435.0
9945.0
9730.0
9563.0
9390.0
9259.0
9112.0
9012.0
8690.0
8889.0
9403.0
8388.0
7206.0
9568.0
20467.0
19439.0
14031.0
9505.0
8370.0
8357.0
7801.0
7547.0
7589.0
7770.0
7859.0
7877.0
7927.0
7969.0
8260.0
8879.0
9673.0
10414.0
10988.0
11481.0
12435.0
12658.0
12503.0
12060.0
11538.0
11121.0
10786.0
10173.0
9917.0
9689.0
9497.0
9314.0
9164.0
8936.0
8823.0
8721.0
8750.0
8947.0
9251.0
9571.0
10002.0
10209.0
10403.0
10516.0
10448.0
10230.0
9746.0
9586.0
9403.0
9272.0
9130.0
9007.0
9002.0
8821.0
9400.0
8561.0
7222.0
9088.0
14938.0
20192.0
14666.0
9825.0
8373.0
8391.0
7856.0
7536.0
7570.0
7754.0
7851.0
7872.0
7922.0
7927.0
7958.0
8797.0
9589.0
10335.0
10933.0
11426.0
11918.0
12650.0
12540.0
12112.0
11585.0
11158.0
10812.0
10492.0
9935.0
9712.0
9508.0
9329.0
9180.0
9049.0
8829.0
8724.0
8740.0
8913.0
9217.0
9534.0
9780.0
10178.0
10385.0
10508.0
10458.0
10262.0
9993.0
9765.0
9413.0
9282.0
8981.0
9010.0
9012.0
8747.0
9377.0
8734.0
7279.0
8658.0
14231.0
19846.0
20168.0
10183.0
8399.0
8412.0
7919.0
7549.0
7544.0
7736.0
7843.0
7872.0
7914.0
7927.0
7951.0
8163.0
9500.0
10262.0
10880.0
11368.0
11866.0
12351.0
12571.0
12162.0
11641.0
11203.0
10846.0
10532.0
10225.0
9738.0
9526.0
9356.0
9196.0
9065.0
8962.0
8839.0
8726.0
8886.0
9188.0
9500.0
9762.0
9961.0
10369.0
10503.0
10477.0
10288.0
10015.0
9791.0
9620.0
9301.0
9162.0
9020.0
9020.0
8784.0
8724.0
8892.0
7361.0
8283.0
13523.0
19429.0
20441.0
15932.0
8449.0
8417.0
7987.0
7563.0
7536.0
7557.0
7709.0
7872.0
7906.0
7930.0
7937.0
8118.0
8648.0
10186.0
10820.0
11315.0
11819.0
12304.0
12624.0
12597.0
11698.0
11239.0
10883.0
10563.0
10251.0
9990.0
9547.0
9374.0
9206.0
9080.0
8970.0
8852.0
8745.0
8865.0
9151.0
9466.0
9741.0
9938.0
10138.0
10490.0
10492.0
10314.0
10049.0
9817.0
9636.0
9460.0
9180.0
9031.0
9020.0
8823.0
8685.0
9277.0
9036.0
7974.0
12825.0
18952.0
20648.0
16553.0
11040.0
8415.0
8063.0
7578.0
7539.0
7552.0
7686.0
7838.0
7901.0
7935.0
7932.0
8089.0
8580.0
9322.0
10757.0
11266.0
11761.0
12251.0
12605.0
12616.0
12267.0
11279.0
10922.0
10597.0
10285.0
10020.0
9778.0
9390.0
9222.0
9093.0
8981.0
8868.0
8755.0
8713.0
9112.0
9437.0
9712.0
9914.0
10117.0
10325.0
10482.0
10335.0
10081.0
9835.0
9654.0
9484.0
9322.0
9041.0
9020.0
8865.0
8656.0
9214.0
9149.0
7615.0
12136.0
18420.0
20774.0
17156.0
11536.0
8619.0
8131.0
7605.0
7544.0
7552.0
7670.0
7835.0
7864.0
7935.0
7930.0
8063.0
8506.0
9238.0
10031.0
10694.0
11701.0
12204.0
12579.0
12631.0
12322.0
11806.0
10962.0
10629.0
10319.0
10041.0
9801.0
9594.0
9403.0
9101.0
8986.0
8884.0
8763.0
8711.0
8823.0
9408.0
9683.0
9896.0
10094.0
10298.0
10474.0
10505.0
10110.0
9851.0
9673.0
9500.0
9332.0
9217.0
9017.0
8897.0
8640.0
9143.0
9243.0
7780.0
7510.0
17845.0
20829.0
17743.0
12063.0
8745.0
8401.0
8189.0
7536.0
7539.0
7649.0
7819.0
7859.0
7898.0
7930.0
8034.0
8441.0
9159.0
9948.0
10634.0
11166.0
12154.0
12548.0
12642.0
12369.0
11858.0
11376.0
10663.0
10353.0
10068.0
9830.0
9615.0
9424.0
9259.0
9002.0
8894.0
8768.0
8711.0
8795.0
9044.0
9654.0
9880.0
10068.0
10277.0
10461.0
10505.0
10385.0
9875.0
9691.0
9516.0
9348.0
9230.0
9062.0
9023.0
8645.0
9067.0
9314.0
7956.0
7355.0
10862.0
20810.0
18304.0
12621.0
8926.0
8391.0
8244.0
7678.0
7539.0
7631.0
7801.0
7861.0
7893.0
7924.0
8006.0
8386.0
9073.0
9864.0
10576.0
11114.0
11596.0
12516.0
12658.0
12411.0
11921.0
11423.0
11024.0
10702.0
10096.0
9859.0
9633.0
9442.0
9274.0
9120.0
8899.0
8782.0
8711.0
8774.0
9017.0
9335.0
9631.0
10047.0
10262.0
10448.0
10513.0
10414.0
10167.0
9712.0
9542.0
9374.0
9246.0
9088.0
9020.0
8957.0
8991.0
9371.0
8145.0
7261.0
10285.0
16569.0
18818.0
13208.0
9146.0
8378.0
8302.0
7733.0
7534.0
7615.0
7791.0
7864.0
7885.0
7927.0
7932.0
7985.0
8986.0
9783.0
10508.0
11056.0
11549.0
12049.0
12663.0
12453.0
11981.0
11473.0
11066.0
10741.0
9885.0
9654.0
9468.0
9290.0
9143.0
9028.0
8803.0
8716.0
8766.0
8986.0
9298.0
9607.0
9835.0
10238.0
10424.0
10516.0
10429.0
10193.0
9935.0
9557.0
9379.0
9253.0
9104.0
9010.0
8978.0
8677.0
9400.0
8320.0
7214.0
9741.0
15879.0
20540.0
19282.0
9403.0
8362.0
8344.0
7775.0
7531.0
7544.0
7772.0
7856.0
7875.0
7924.0
7927.0
7972.0
8276.0
9699.0
10432.0
11004.0
11496.0
11992.0
12451.0
12490.0
12039.0
11517.0
11106.0
10770.0
10445.0
10159.0
9681.0
9484.0
9303.0
9159.0
9036.0
8928.0
8813.0
8753.0
8955.0
9264.0
9576.0
9809.0
10010.0
10411.0
10519.0
10440.0
10225.0
9959.0
9741.0
9584.0
9272.0
9125.0
9010.0
9002.0
8703.0
8844.0
8501.0
7211.0
9240.0
15179.0
20294.0
19696.0
14445.0
8370.0
8380.0
7833.0
7536.0
7544.0
7578.0
7851.0
7875.0
7922.0
7927.0
7961.0
8223.0
8821.0
10361.0
10954.0
11441.0
11942.0
12411.0
12650.0
12529.0
11570.0
11148.0
10799.0
10484.0
10186.0
9924.0
9500.0
9324.0
9175.0
9044.0
8944.0
8821.0
8724.0
8920.0
9230.0
9544.0
9788.0
9990.0
10186.0
10508.0
10456.0
10254.0
9980.0
9762.0
9597.0
9411.0
9135.0
9012.0
9010.0
8732.0
8787.0
9379.0
7251.0
8795.0
14480.0
19971.0
20058.0
15080.0
10047.0
8404.0
7895.0
7547.0
7542.0
7568.0
7741.0
7846.0
7914.0
7932.0
7951.0
8176.0
8753.0
9529.0
10901.0
11386.0
11892.0
12364.0
12639.0
12563.0
12144.0
11187.0
10836.0
10521.0
10217.0
9959.0
9728.0
9350.0
9188.0
9062.0
8957.0
8837.0
8734.0
8729.0
9201.0
9513.0
9770.0
9966.0
10165.0
10377.0
10503.0
10280.0
10007.0
9788.0
9613.0
9437.0
9295.0
9020.0
9015.0
8771.0
8737.0
9348.0
8842.0
7327.0
13772.0
19581.0
20359.0
15712.0
10440.0
8430.0
7966.0
7557.0
7542.0
7563.0
7717.0
7846.0
7872.0
7935.0
7943.0
8137.0
8677.0
9440.0
10220.0
11336.0
11837.0
12317.0
12629.0
12587.0
12199.0
11682.0
10875.0
10555.0
10243.0
9985.0
9749.0
9544.0
9366.0
9078.0
8965.0
8850.0
8742.0
8716.0
8873.0
9479.0
9746.0
9945.0
10146.0
10356.0
10495.0
10492.0
10039.0
9807.0
9628.0
9458.0
9303.0
9175.0
9017.0
8813.0
8692.0
9298.0
8989.0
7431.0
8079.0
19127.0
20587.0
16336.0
10880.0
8488.0
8417.0
7570.0
7542.0
7555.0
7696.0
7843.0
7867.0
7906.0
7935.0
8105.0
8603.0
9353.0
10141.0
10778.0
11289.0
12270.0
12613.0
12608.0
12254.0
11735.0
11266.0
10584.0
10277.0
10013.0
9770.0
9568.0
9382.0
9217.0
8976.0
8868.0
8747.0
8713.0
8852.0
9125.0
9720.0
9922.0
10125.0
10330.0
10490.0
10498.0
10327.0
9822.0
9647.0
9476.0
9314.0
9196.0
9031.0
9020.0
8666.0
9240.0
9109.0
7565.0
7798.0
12372.0
20740.0
16952.0
11360.0
8574.0
8417.0
8105.0
7589.0
7544.0
7675.0
7833.0
7859.0
7906.0
7930.0
8074.0
8530.0
9272.0
10060.0
10720.0
11239.0
11722.0
12589.0
12626.0
12306.0
11785.0
11313.0
10946.0
10311.0
10034.0
9796.0
9586.0
9398.0
9238.0
9096.0
8879.0
8758.0
8716.0
8826.0
9091.0
9421.0
9691.0
10102.0
10309.0
10482.0
10500.0
10353.0
10099.0
9670.0
9492.0
9329.0
9214.0
9041.0
9023.0
8884.0
9172.0
9211.0
7725.0
7573.0
11709.0
18058.0
17547.0
11874.0
8695.0
8409.0
8168.0
7625.0
7539.0
7660.0
7822.0
7864.0
7903.0
7930.0
7935.0
8467.0
9190.0
9977.0
10663.0
11184.0
11672.0
12181.0
12647.0
12354.0
11842.0
11363.0
10980.0
10655.0
10343.0
9825.0
9605.0
9419.0
9259.0
9109.0
9004.0
8771.0
8716.0
8800.0
9062.0
9384.0
9668.0
9888.0
10290.0
10466.0
10508.0
10380.0
10123.0
9872.0
9508.0
9345.0
9222.0
9057.0
9020.0
8913.0
8645.0
9293.0
7895.0
7400.0
11077.0
17447.0
20826.0
18115.0
8860.0
8394.0
8223.0
7665.0
7534.0
7542.0
7806.0
7861.0
7890.0
7927.0
7930.0
8011.0
8407.0
9893.0
10597.0
11129.0
11620.0
12123.0
12527.0
12395.0
11903.0
11407.0
11014.0
10694.0
10372.0
10089.0
9626.0
9442.0
9269.0
9122.0
9012.0
8897.0
8711.0
8784.0
9028.0
9345.0
9641.0
9864.0
10052.0
10448.0
10513.0
10403.0
10152.0
9898.0
9699.0
9529.0
9232.0
9078.0
9012.0
8944.0
8653.0
9010.0
8074.0
7287.0
10482.0
16797.0
20758.0
18637.0
12996.0
8375.0
8281.0
7707.0
7528.0
7542.0
7612.0
7859.0
7882.0
7927.0
7927.0
7992.0
8349.0
9012.0
10529.0
11074.0
11567.0
12065.0
12495.0
12660.0
11960.0
11452.0
11053.0
10726.0
10403.0
10120.0
9869.0
9460.0
9282.0
9141.0
9023.0
8913.0
8800.0
8711.0
8996.0
9311.0
9618.0
9841.0
10036.0
10246.0
10519.0
10416.0
10183.0
9924.0
9717.0
9555.0
9374.0
9099.0
9007.0
8973.0
8669.0
8939.0
9392.0
7224.0
9922.0
16123.0
20614.0
19122.0
13604.0
9306.0
8333.0
7757.0
7534.0
7544.0
7597.0
7785.0
7859.0
7930.0
7927.0
7982.0
8291.0
8934.0
9733.0
11027.0
11515.0
12015.0
12469.0
12658.0
12482.0
12021.0
11095.0
10760.0
10440.0
10152.0
9896.0
9675.0
9303.0
9159.0
9031.0
8928.0
8810.0
8716.0
8763.0
9280.0
9586.0
9820.0
10018.0
10220.0
10416.0
10435.0
10217.0
9948.0
9736.0
9573.0
9387.0
9266.0
9012.0
8994.0
8690.0
8871.0
9403.0
8441.0
7209.0
15434.0
20391.0
19555.0
14225.0
9586.0
8370.0
7809.0
7536.0
7539.0
7581.0
7767.0
7851.0
7880.0
7927.0
7966.0
8236.0
8852.0
9644.0
10387.0
11454.0
11960.0
12424.0
12652.0
12068.0
11551.0
10791.0
10477.0
10175.0
9919.0
9696.0
9492.0
9167.0
9044.0
8944.0
8818.0
8726.0
8747.0
8934.0
9552.0
9801.0
9998.0
10196.0
10403.0
10511.0
10456.0
9972.0
9759.0
9589.0
9405.0
9280.0
9130.0
9004.0
8721.0
8808.0
9392.0
8619.0
7235.0
8944.0
20089.0
19940.0
14857.0
9919.0
8386.0
8394.0
7544.0
7542.0
7576.0
7746.0
7848.0
7877.0
7914.0
7956.0
8194.0
8782.0
9557.0
10319.0
10920.0
11405.0
12380.0
12645.0
12553.0
12123.0
11609.0
11169.0
10508.0
10201.0
9951.0
9717.0
9513.0
9345.0
9180.0
8952.0
8829.0
8732.0
8729.0
8907.0
9209.0
9778.0
9972.0
10175.0
10382.0
10503.0
10471.0
10267.0
9778.0
9602.0
9429.0
9287.0
9149.0
9017.0
8761.0
8750.0
9361.0
8787.0
7293.0
8540.0
14016.0
20260.0
15486.0
10298.0
8415.0
8407.0
7945.0
7547.0
7565.0
7720.0
7848.0
7869.0
7911.0
7935.0
8152.0
8703.0
9468.0
10246.0
10857.0
11355.0
11855.0
12637.0
12579.0
12181.0
11661.0
11208.0
10867.0
10235.0
9977.0
9738.0
9539.0
9358.0
9196.0
9073.0
8850.0
8740.0
8724.0
8886.0
9170.0
9492.0
9951.0
10157.0
10359.0
10500.0
10487.0
10293.0
10031.0
9626.0
9450.0
9298.0
9172.0
9023.0
9020.0
8803.0
9322.0
8936.0
7390.0
8192.0
13308.0
19298.0
16118.0
10728.0
8462.0
8420.0
8016.0
7563.0
7544.0
7701.0
7843.0
7864.0
7911.0
7932.0
7937.0
8624.0
9384.0
10170.0
10799.0
11308.0
11798.0
12291.0
12600.0
12236.0
11711.0
11253.0
10901.0
10571.0
10270.0
9762.0
9557.0
9374.0
9214.0
9083.0
8970.0
8742.0
8719.0
8860.0
9135.0
9466.0
9728.0
9932.0
10335.0
10492.0
10490.0
10319.0
10060.0
9814.0
9466.0
9311.0
9190.0
9025.0
9023.0
8837.0
8671.0
9065.0
7518.0
7888.0
12610.0
18805.0
20692.0
11187.0
8540.0
8420.0
8079.0
7584.0
7542.0
7544.0
7833.0
7864.0
7909.0
7930.0
7935.0
8084.0
8553.0
10083.0
10741.0
11255.0
11743.0
12243.0
12592.0
12288.0
11766.0
11300.0
10933.0
10608.0
10301.0
10020.0
9578.0
9390.0
9232.0
9091.0
8986.0
8873.0
8719.0
8831.0
9104.0
9432.0
9702.0
9917.0
10107.0
10484.0
10498.0
10348.0
10086.0
9838.0
9662.0
9324.0
9204.0
9036.0
9025.0
8868.0
8653.0
9193.0
7670.0
7641.0
11939.0
18260.0
20797.0
17345.0
11685.0
8412.0
8142.0
7615.0
7539.0
7542.0
7667.0
7864.0
7898.0
7932.0
7935.0
8048.0
8491.0
9217.0
10686.0
11200.0
11688.0
12196.0
12566.0
12642.0
11824.0
11344.0
10967.0
10644.0
10330.0
10049.0
9817.0
9413.0
9248.0
9104.0
8999.0
8884.0
8768.0
8713.0
9073.0
9392.0
9675.0
9896.0
10081.0
10298.0
10505.0
10374.0
10112.0
9864.0
9675.0
9502.0
9343.0
9054.0
9020.0
8902.0
8648.0
9117.0
9272.0
7452.0
11297.0
17662.0
20834.0
17921.0
12222.0
8803.0
8205.0
7649.0
7531.0
7544.0
7641.0
7809.0
7890.0
7930.0
7930.0
8021.0
8430.0
9125.0
9924.0
11145.0
11638.0
12136.0
12540.0
12652.0
12375.0
11884.0
11004.0
10681.0
10359.0
10081.0
9838.0
9615.0
9259.0
9120.0
9010.0
8894.0
8782.0
8711.0
8792.0
9356.0
9654.0
9872.0
10065.0
10277.0
10453.0
10393.0
10144.0
9893.0
9691.0
9529.0
9356.0
9232.0
9015.0
8939.0
8653.0
9041.0
9340.0
8008.0
7324.0
17028.0
20795.0
18459.0
12794.0
8991.0
8380.0
7691.0
7531.0
7547.0
7623.0
7804.0
7864.0
7888.0
7927.0
8003.0
8370.0
9044.0
9848.0
10553.0
11585.0
12084.0
12513.0
12655.0
12427.0
11945.0
11436.0
10713.0
10393.0
10115.0
9862.0
9647.0
9453.0
9138.0
9017.0
8913.0
8795.0
8711.0
8782.0
9007.0
9628.0
9848.0
10047.0
10254.0
10440.0
10521.0
10411.0
9914.0
9712.0
9550.0
9366.0
9251.0
9093.0
8968.0
8661.0
8968.0
9384.0
8192.0
7245.0
10112.0
20677.0
18957.0
13397.0
9217.0
8375.0
8320.0
7534.0
7544.0
7602.0
7791.0
7854.0
7885.0
7927.0
7990.0
8310.0
8960.0
9762.0
10482.0
11048.0
12034.0
12477.0
12655.0
12469.0
11994.0
11483.0
11085.0
10429.0
10138.0
9885.0
9668.0
9466.0
9298.0
9149.0
8928.0
8803.0
8719.0
8763.0
8970.0
9293.0
9827.0
10026.0
10225.0
10427.0
10513.0
10429.0
10204.0
9730.0
9565.0
9382.0
9264.0
9104.0
9012.0
8679.0
8894.0
9398.0
8378.0
7209.0
9578.0
15678.0
19410.0
14008.0
9481.0
8370.0
8357.0
7788.0
7534.0
7589.0
7770.0
7851.0
7880.0
7919.0
7930.0
8255.0
8884.0
9673.0
10414.0
10996.0
11475.0
11984.0
12655.0
12508.0
12049.0
11538.0
11119.0
10781.0
10165.0
9914.0
9689.0
9487.0
9319.0
9162.0
9041.0
8813.0
8724.0
8745.0
8944.0
9259.0
9563.0
10000.0
10204.0
10408.0
10508.0
10448.0
10230.0
9961.0
9581.0
9400.0
9272.0
9120.0
9015.0
8999.0
8711.0
9395.0
8559.0
7217.0
9101.0
14975.0
20200.0
14634.0
9799.0
8380.0
8383.0
7854.0
7539.0
7542.0
7751.0
7851.0
7877.0
7916.0
7932.0
7953.0
8805.0
9584.0
10346.0
10935.0
11423.0
11929.0
12393.0
12540.0
12105.0
11591.0
11153.0
10815.0
10495.0
9940.0
9707.0
9508.0
9335.0
9175.0
9057.0
8947.0
8732.0
8734.0
8920.0
9219.0
9531.0
9788.0
9977.0
10387.0
10505.0
10466.0
10254.0
9993.0
9770.0
9421.0
9280.0
9143.0
9015.0
9007.0
8747.0
8768.0
8726.0
7264.0
8679.0
14262.0
19859.0
20158.0
10165.0
8399.0
8404.0
7922.0
7542.0
7544.0
7568.0
7851.0
7872.0
7914.0
7932.0
7943.0
8168.0
8724.0
10875.0
11376.0
11871.0
12348.0
12642.0
12162.0
11638.0
11192.0
10851.0
10524.0
10225.0
9966.0
9531.0
9350.0
9190.0
9067.0
8955.0
8844.0
8724.0
8892.0
9180.0
9505.0
9759.0
9956.0
10165.0
10505.0
10477.0
10283.0
10020.0
9786.0
9618.0
9290.0
9164.0
9017.0
9017.0
8787.0
8716.0
9337.0
7353.0
8310.0
13552.0
19455.0
20433.0
15895.0
10571.0
8417.0
7987.0
7555.0
7544.0
7552.0
7712.0
7864.0
7911.0
7927.0
7937.0
8131.0
8650.0
9419.0
10820.0
11323.0
11814.0
12306.0
12624.0
12592.0
11690.0
11237.0
10886.0
10558.0
10259.0
9985.0
9754.0
9366.0
9209.0
9073.0
8968.0
8855.0
8740.0
8863.0
9146.0
9476.0
9733.0
9940.0
10138.0
10343.0
10487.0
10314.0
10049.0
9804.0
9641.0
9458.0
9306.0
9023.0
9023.0
8818.0
8679.0
9285.0
9020.0
7985.0
12852.0
18983.0
20635.0
16527.0
11022.0
8506.0
8053.0
7576.0
7544.0
7544.0
7694.0
7833.0
7909.0
7927.0
7937.0
8089.0
8580.0
9332.0
10110.0
11271.0
11761.0
12262.0
12603.0
12616.0
12267.0
11745.0
10917.0
10597.0
10288.0
10013.0
9780.0
9568.0
9230.0
9086.0
8986.0
8868.0
8753.0
8721.0
8839.0
9442.0
9712.0
9922.0
10112.0
10325.0
10487.0
10340.0
10073.0
9830.0
9657.0
9476.0
9322.0
9198.0
9025.0
8855.0
8661.0
9217.0
9141.0
7615.0
12173.0
18454.0
20771.0
17140.0
11507.0
8611.0
8415.0
7605.0
7539.0
7547.0
7675.0
7825.0
7867.0
7901.0
7935.0
8058.0
8517.0
9246.0
10034.0
10707.0
11709.0
12212.0
12576.0
12639.0
12317.0
11808.0
11329.0
2.0
9919.0
10117.0
10322.0
10487.0
10498.0
10335.0
9827.0
9654.0
9481.0
9319.0
9201.0
9033.0
9023.0
8658.0
9222.0
9143.0
7615.0
7722.0
12157.0
20771.0
17143.0
11523.0
8611.0
8417.0
8126.0
7602.0
7542.0
7673.0
7830.0
7864.0
7903.0
7930.0
8061.0
8509.0
9248.0
10034.0
10702.0
11224.0
11706.0
12579.0
12631.0
12322.0
11806.0
11331.0
10956.0
10631.0
10041.0
9807.0
9594.0
9405.0
9246.0
9101.0
8884.0
8763.0
8716.0
8818.0
9080.0
9408.0
9683.0
10094.0
10304.0
10477.0
10503.0
10364.0
10107.0
9675.0
9495.0
9335.0
9217.0
9049.0
9025.0
8894.0
9149.0
9240.0
7780.0
7513.0
11507.0
17869.0
20826.0
12044.0
8747.0
8407.0
8186.0
7636.0
7536.0
7654.0
7814.0
7861.0
7895.0
7924.0
7932.0
8032.0
9159.0
9948.0
10639.0
11163.0
11651.0
12157.0
12647.0
12367.0
11858.0
11376.0
10985.0
10665.0
10351.0
9830.0
9610.0
9424.0
9259.0
9109.0
9004.0
8774.0
8713.0
8795.0
9052.0
9369.0
9657.0
9880.0
10283.0
10461.0
10508.0
10387.0
10133.0
9877.0
9689.0
9350.0
9225.0
9065.0
9020.0
8923.0
8650.0
9316.0
7956.0
7361.0
10886.0
17243.0
20810.0
18283.0
8920.0
8388.0
8244.0
7675.0
7531.0
7542.0
7801.0
7861.0
7888.0
7927.0
7930.0
8006.0
8386.0
9869.0
10576.0
11111.0
11599.0
12105.0
12516.0
12409.0
11918.0
11420.0
11024.0
10702.0
10382.0
10099.0
9631.0
9447.0
9274.0
9125.0
9017.0
8902.0
8789.0
8779.0
9020.0
9335.0
9633.0
9859.0
10047.0
10443.0
10511.0
10408.0
10162.0
9906.0
9704.0
9539.0
9240.0
9083.0
9012.0
8952.0
8661.0
8989.0
8131.0
7261.0
10298.0
16587.0
20719.0
18800.0
13185.0
8373.0
8297.0
7722.0
7531.0
7544.0
7610.0
7791.0
7882.0
7930.0
7930.0
7987.0
8333.0
8986.0
10508.0
11059.0
11551.0
12052.0
12487.0
12660.0
12451.0
11468.0
11064.0
10736.0
10416.0
10131.0
9880.0
9468.0
9290.0
9146.0
9028.0
8918.0
8805.0
8716.0
8989.0
9301.0
9607.0
9835.0
10028.0
10241.0
10516.0
10424.0
10191.0
9932.0
9723.0
9560.0
9379.0
9104.0
9007.0
8978.0
8677.0
8913.0
9398.0
8315.0
9757.0
15900.0
20548.0
19266.0
13798.0
9392.0
8346.0
7775.0
7531.0
7544.0
7589.0
7778.0
7856.0
7930.0
7930.0
7974.0
8278.0
8905.0
9704.0
11009.0
11496.0
11994.0
12451.0
12658.0
12490.0
12036.0
11106.0
10770.0
10450.0
10162.0
9904.0
9681.0
9308.0
9162.0
9036.0
8931.0
8813.0
8716.0
8755.0
9266.0
9578.0
9812.0
10010.0
10214.0
10411.0
10516.0
10222.0
9956.0
9744.0
9578.0
9392.0
9266.0
9007.0
8999.0
8698.0
8847.0
9400.0
8493.0
7214.0
15206.0
20302.0
19680.0
14424.0
9691.0
8370.0
7833.0
7536.0
7542.0
7576.0
7762.0
7851.0
7877.0
7927.0
7964.0
8226.0
8829.0
9620.0
10364.0
10959.0
11945.0
12411.0
12650.0
12529.0
12089.0
11567.0
10802.0
10484.0
10188.0
9927.0
9707.0
9502.0
9327.0
9046.0
8947.0
8823.0
8724.0
8745.0
8926.0
9547.0
9791.0
9993.0
10188.0
10395.0
10511.0
10456.0
9980.0
9759.0
9594.0
9411.0
9285.0
9135.0
9012.0
8729.0
8789.0
9384.0
8671.0
7253.0
8808.0
19982.0
20045.0
15059.0
10036.0
8391.0
8404.0
7895.0
7542.0
7570.0
7741.0
7846.0
7877.0
7914.0
7953.0
8179.0
8755.0
9531.0
10290.0
10901.0
11386.0
12367.0
12639.0
12561.0
12141.0
11622.0
11184.0
10519.0
10214.0
9953.0
9728.0
9518.0
9348.0
9185.0
8957.0
8834.0
8734.0
8732.0
8897.0
9201.0
9969.0
10167.0
10377.0
10503.0
10469.0
10277.0
9786.0
9613.0
9434.0
9298.0
9156.0
9020.0
9015.0
8740.0
9348.0
8834.0
7321.0
8417.0
13790.0
20344.0
15693.0
10427.0
8428.0
8415.0
7964.0
7557.0
7563.0
7722.0
7846.0
7875.0
7909.0
7935.0
8139.0
8682.0
9442.0
10220.0
10844.0
11336.0
11840.0
12629.0
12592.0
12196.0
11680.0
11226.0
10872.0
10555.0
9985.0
9749.0
9542.0
9369.0
9201.0
9075.0
8847.0
8745.0
8721.0
8876.0
9164.0
9479.0
9749.0
10146.0
10356.0
10492.0
10490.0
10304.0
10039.0
9628.0
9455.0
9306.0
9175.0
9028.0
9020.0
8810.0
9301.0
8983.0
7429.0
8087.0
13090.0
19143.0
16320.0
10865.0
8488.0
8417.0
8037.0
7573.0
7542.0
7696.0
7843.0
7869.0
7906.0
7935.0
7935.0
8105.0
9356.0
10144.0
10783.0
11287.0
11785.0
12270.0
12608.0
12251.0
11732.0
11266.0
10909.0
10587.0
10275.0
9770.0
9563.0
9384.0
9217.0
9088.0
8976.0
8750.0
8713.0
8850.0
9125.0
9447.0
9725.0
9922.0
10332.0
10487.0
10498.0
10327.0
10070.0
9825.0
9476.0
9314.0
9190.0
9033.0
9017.0
8850.0
8666.0
9109.0
7560.0
7809.0
12398.0
18632.0
20737.0
16928.0
8574.0
8412.0
8105.0
7589.0
7539.0
7547.0
7835.0
7864.0
7901.0
7932.0
7930.0
8074.0
8535.0
10065.0
10720.0
11239.0
11727.0
12225.0
12592.0
12301.0
11787.0
11308.0
10946.0
10618.0
10309.0
10036.0
9589.0
9398.0
9232.0
9099.0
8986.0
8879.0
8761.0
8831.0
9091.0
9419.0
9696.0
9904.0
10104.0
10479.0
10505.0
10348.0
10099.0
9846.0
9665.0
9495.0
9209.0
9041.0
9020.0
8886.0
8648.0
9172.0
7715.0
7584.0
11727.0
18074.0
20821.0
17526.0
11861.0
8407.0
8168.0
7620.0
7542.0
7542.0
7657.0
7859.0
7901.0
7930.0
7930.0
8048.0
8467.0
9190.0
10660.0
11190.0
11669.0
12175.0
12563.0
12642.0
12351.0
11355.0
10980.0
10650.0
10343.0
10060.0
9820.0
9413.0
9253.0
9109.0
8996.0
8892.0
8766.0
8713.0
9059.0
9384.0
9668.0
9885.0
10081.0
10285.0
10508.0
10377.0
10128.0
9867.0
9683.0
9510.0
9340.0
9057.0
9017.0
8915.0
8643.0
9099.0
9293.0
7411.0
11090.0
17465.0
20823.0
18095.0
12406.0
8852.0
8228.0
7660.0
7539.0
7539.0
7639.0
7812.0
7861.0
7927.0
7932.0
8019.0
8407.0
9109.0
9898.0
11135.0
11614.0
12128.0
12532.0
12655.0
12398.0
11895.0
11014.0
10686.0
10377.0
10086.0
9848.0
9628.0
9272.0
9122.0
9015.0
8905.0
8779.0
8716.0
8787.0
9353.0
9641.0
9869.0
10057.0
10267.0
10453.0
10508.0
10154.0
9893.0
9702.0
9526.0
9358.0
9238.0
9017.0
8941.0
8653.0
9020.0
9350.0
8074.0
7293.0
16823.0
20758.0
18627.0
12983.0
9052.0
8383.0
7707.0
7534.0
7544.0
7620.0
7796.0
7859.0
7888.0
7932.0
7992.0
8349.0
9020.0
9814.0
10534.0
11567.0
12073.0
12495.0
12660.0
12437.0
11955.0
11454.0
10726.0
10403.0
10115.0
9872.0
9647.0
9455.0
9287.0
9028.0
8913.0
8795.0
8716.0
8768.0
8999.0
9613.0
9848.0
10034.0
10246.0
10432.0
10513.0
10422.0
9922.0
9717.0
9547.0
9377.0
9251.0
9093.0
8965.0
8671.0
8944.0
9390.0
8255.0
7224.0
9943.0
20616.0
19114.0
13580.0
9298.0
8370.0
8325.0
7531.0
7542.0
7602.0
7780.0
7861.0
7880.0
7924.0
7977.0
8297.0
8936.0
9730.0
10466.0
11024.0
11517.0
12461.0
12663.0
12477.0
12018.0
11502.0
11090.0
10437.0
10149.0
9898.0
9670.0
9484.0
9303.0
9154.0
8926.0
8813.0
8721.0
8758.0
8970.0
9277.0
9825.0
10015.0
10225.0
10416.0
10516.0
10440.0
10212.0
9736.0
9571.0
9392.0
9261.0
9114.0
9012.0
8989.0
8868.0
9403.0
8436.0
7206.0
9429.0
15449.0
19547.0
14202.0
9586.0
8367.0
8365.0
7814.0
7531.0
7584.0
7762.0
7856.0
7875.0
7924.0
7927.0
8247.0
8852.0
9647.0
10390.0
10969.0
11462.0
11960.0
12655.0
12513.0
12073.0
11551.0
11129.0
10794.0
10178.0
9919.0
9694.0
9500.0
9316.0
9170.0
9046.0
8823.0
8721.0
8747.0
8939.0
9243.0
9560.0
9796.0
10204.0
10398.0
10513.0
10453.0
10238.0
9977.0
9592.0
9408.0
9277.0
9135.0
9010.0
9007.0
8724.0
9398.0
8614.0
7232.0
8965.0
14742.0
20105.0
14836.0
9917.0
8380.0
8399.0
7875.0
7539.0
7544.0
7749.0
7854.0
7875.0
7922.0
7930.0
7956.0
8779.0
9563.0
10317.0
10920.0
11412.0
11905.0
12382.0
12548.0
12128.0
11601.0
11174.0
10825.0
10505.0
10207.0
9720.0
9518.0
9337.0
9185.0
9054.0
8952.0
8729.0
8740.0
8907.0
9209.0
9529.0
9775.0
9977.0
10382.0
10511.0
10466.0
10272.0
10000.0
9772.0
9421.0
9290.0
9151.0
9015.0
9017.0
8755.0
8753.0
8776.0
7295.0
8548.0
14034.0
19738.0
20247.0
15473.0
8409.0
8417.0
7940.0
7552.0
7542.0
7560.0
7843.0
7872.0
7914.0
7930.0
7948.0
8150.0
8700.0
10241.0
10865.0
11355.0
11853.0
12338.0
12629.0
12181.0
11656.0
11213.0
10859.0
10540.0
10238.0
9969.0
9534.0
9358.0
9204.0
9067.0
8965.0
8844.0
8729.0
8881.0
9177.0
9495.0
9751.0
9959.0
10152.0
10500.0
10479.0
10298.0
10028.0
9799.0
9626.0
9445.0
9167.0
9023.0
9023.0
8795.0
8711.0
9319.0
7392.0
8194.0
13331.0
19308.0
20501.0
16102.0
10702.0
8420.0
8006.0
7565.0
7539.0
7555.0
7709.0
7872.0
7909.0
7932.0
7940.0
8110.0
8629.0
9384.0
10804.0
11300.0
11800.0
12291.0
12613.0
12603.0
11711.0
11253.0
10893.0
10576.0
10262.0
9998.0
9767.0
9379.0
9211.0
9080.0
8976.0
8747.0
8716.0
9141.0
9458.0
9733.0
9935.0
10128.0
10343.0
10492.0
10319.0
10052.0
9820.0
9639.0
9466.0
9314.0
9031.0
9017.0
8829.0
8677.0
9259.0
9065.0
7895.0
12639.0
18815.0
20687.0
16721.0
11169.0
8543.0
8079.0
7586.0
7539.0
7555.0
7683.0
7835.0
7867.0
7935.0
7932.0
8079.0
8561.0
9301.0
10091.0
11250.0
11748.0
12241.0
12597.0
12624.0
12280.0
11769.0
10927.0
10608.0
10293.0
10026.0
9788.0
9576.0
9225.0
9093.0
8983.0
8868.0
8758.0
8711.0
8837.0
9426.0
9707.0
9911.0
10110.0
10322.0
10479.0
10340.0
10083.0
9841.0
9657.0
9487.0
9324.0
9201.0
9017.0
8873.0
8656.0
9193.0
9180.0
7657.0
7652.0
18270.0
20800.0
17319.0
11669.0
8650.0
8407.0
7612.0
7536.0
7547.0
7657.0
7825.0
7861.0
7895.0
7930.0
8050.0
8493.0
9211.0
10010.0
10678.0
11690.0
12188.0
12574.0
12634.0
12330.0
11827.0
11336.0
10642.0
10325.0
10055.0
9809.0
9599.0
9413.0
9109.0
8994.0
8886.0
8768.0
8711.0
8816.0
9070.0
9681.0
9890.0
10091.0
10298.0
10466.0
10511.0
10367.0
9862.0
9673.0
9508.0
9335.0
9222.0
9054.0
8907.0
8645.0
9122.0
9272.0
7827.0
7468.0
11313.0
20837.0
17898.0
12212.0
8797.0
8399.0
8213.0
7539.0
7544.0
7641.0
7819.0
7859.0
7895.0
7935.0
8032.0
8428.0
9130.0
9932.0
10616.0
11153.0
11638.0
12545.0
12647.0
12382.0
11879.0
11381.0
11006.0
10361.0
10081.0
9833.0
9623.0
9429.0
9264.0
9122.0
8902.0
8776.0
8711.0
8797.0
9036.0
9366.0
9869.0
10065.0
10270.0
10456.0
10511.0
10387.0
10144.0
9694.0
9526.0
9348.0
9235.0
9067.0
9015.0
8645.0
9046.0
9335.0
8006.0
7332.0
10699.0
17051.0
18441.0
12783.0
8978.0
8386.0
8268.0
7686.0
7536.0
7625.0
7806.0
7856.0
7890.0
7927.0
7930.0
8365.0
9049.0
9843.0
10553.0
11101.0
11580.0
12089.0
12652.0
12427.0
11934.0
11436.0
11043.0
10707.0
10104.0
9862.0
9644.0
9447.0
9282.0
9130.0
9015.0
8787.0
8716.0
8779.0
9004.0
9332.0
9626.0
10044.0
10249.0
10443.0
10513.0
10411.0
10175.0
9909.0
9544.0
9369.0
9248.0
9083.0
9015.0
8962.0
8658.0
9374.0
8192.0
7245.0
10125.0
16388.0
20671.0
13373.0
9204.0
8375.0
8312.0
7736.0
7536.0
7539.0
7788.0
7856.0
7885.0
7924.0
7932.0
7987.0
8968.0
9757.0
10487.0
11048.0
11530.0
12039.0
12472.0
12469.0
11992.0
11486.0
11077.0
10744.0
10427.0
10131.0
9665.0
9466.0
9301.0
9143.0
9031.0
8923.0
8721.0
8758.0
8978.0
9293.0
9592.0
9833.0
10020.0
10427.0
10511.0
10432.0
10201.0
9935.0
9733.0
9387.0
9259.0
9104.0
9015.0
8983.0
8687.0
8897.0
8375.0
7206.0
9597.0
15699.0
20475.0
19403.0
9476.0
8370.0
8352.0
7793.0
7536.0
7544.0
7594.0
7859.0
7882.0
7922.0
7935.0
7969.0
8262.0
8886.0
10422.0
10993.0
11481.0
11987.0
12432.0
12658.0
12047.0
11536.0
11114.0
10783.0
10463.0
10162.0
9914.0
9489.0
9316.0
9162.0
9046.0
8936.0
8816.0
8745.0
8952.0
9256.0
9568.0
9812.0
9998.0
10209.0
10511.0
10453.0
10228.0
9964.0
9751.0
9581.0
9272.0
9128.0
9015.0
8999.0
8713.0
8826.0
9400.0
7217.0
9122.0
14993.0
20210.0
19806.0
14611.0
9793.0
8383.0
7859.0
7536.0
7544.0
7578.0
7751.0
7875.0
7919.0
7935.0
7956.0
8215.0
8805.0
9592.0
10933.0
11428.0
11926.0
12395.0
12655.0
12534.0
11585.0
11153.0
10817.0
10492.0
10193.0
9940.0
9707.0
9332.0
9177.0
9057.0
8944.0
8831.0
8726.0
8737.0
9217.0
9539.0
9786.0
9980.0
10188.0
10385.0
10463.0
10256.0
9995.0
9767.0
9599.0
9424.0
9280.0
9015.0
9012.0
8747.0
8766.0
9379.0
8724.0
8695.0
14280.0
19872.0
20142.0
15245.0
10157.0
8396.0
7919.0
7542.0
7547.0
7563.0
7733.0
7851.0
7916.0
7930.0
7945.0
8168.0
8724.0
9502.0
10270.0
11376.0
11869.0
12351.0
12637.0
12561.0
12162.0
11635.0
10849.0
10521.0
10225.0
9961.0
9730.0
9531.0
9193.0
9062.0
8955.0
8844.0
8732.0
8726.0
8892.0
9508.0
9759.0
9959.0
10159.0
10361.0
10505.0
10283.0
10020.0
9786.0
9620.0
9437.0
9293.0
9164.0
9020.0
8782.0
8721.0
9343.0
8879.0
7353.0
13570.0
19466.0
20420.0
15879.0
10558.0
8438.0
8420.0
7557.0
7544.0
7552.0
7712.0
7840.0
7864.0
7914.0
7943.0
8129.0
8650.0
9419.0
10191.0
10823.0
11811.0
12309.0
12618.0
12589.0
12215.0
11688.0
11239.0
10558.0
10256.0
9985.0
9754.0
9550.0
9363.0
9073.0
8970.0
8858.0
8740.0
8724.0
8863.0
9151.0
9733.0
9943.0
10138.0
10346.0
10498.0
10484.0
10314.0
9809.0
9641.0
9455.0
9308.0
9183.0
9025.0
8818.0
8685.0
9287.0
9017.0
7471.0
7992.0
12873.0
20627.0
16509.0
11004.0
8506.0
8422.0
8050.0
7539.0
7547.0
7694.0
7833.0
7864.0
7909.0
7930.0
8092.0
8582.0
9332.0
10112.0
10768.0
11268.0
12262.0
12600.0
12618.0
12264.0
11745.0
11284.0
10917.0
10288.0
10013.0
9783.0
9568.0
9387.0
9227.0
9088.0
8868.0
8753.0
8721.0
8839.0
9120.0
9440.0
9924.0
10112.0
10327.0
10484.0
10492.0
10338.0
10073.0
9654.0
9474.0
9324.0
9196.0
9036.0
9025.0
8664.0
9219.0
9141.0
7610.0
7728.0
12194.0
18469.0
17117.0
11491.0
8611.0
8417.0
8118.0
7605.0
7547.0
7673.0
7827.0
7867.0
7901.0
7932.0
7935.0
8519.0
9246.0
10036.0
10707.0
11218.0
11711.0
12212.0
12637.0
12314.0
11806.0
11329.0
10951.0
10634.0
10041.0
9586.0
9405.0
9238.0
9101.0
8994.0
8766.0
8713.0
8818.0
9088.0
9403.0
9689.0
10091.0
10309.0
10471.0
10505.0
10361.0
10102.0
9856.0
9497.0
9337.0
9209.0
9052.0
9020.0
8892.0
8650.0
9240.0
7770.0
7521.0
11541.0
17890.0
20831.0
12015.0
8745.0
8401.0
8184.0
7636.0
7534.0
7547.0
7817.0
7864.0
7893.0
7932.0
7930.0
8032.0
9159.0
9959.0
10642.0
11163.0
11656.0
12157.0
12553.0
12359.0
11863.0
11371.0
10990.0
10668.0
10346.0
9830.0
9613.0
9429.0
9253.0
9117.0
9004.0
8892.0
8708.0
8800.0
9052.0
9369.0
9665.0
9877.0
10070.0
10456.0
10513.0
10382.0
10131.0
9880.0
9683.0
9348.0
9225.0
9067.0
9012.0
8926.0
8645.0
9067.0
7937.0
7369.0
10912.0
17271.0
20818.0
18254.0
8915.0
8388.0
8247.0
7673.0
7534.0
7547.0
7628.0
7861.0
7890.0
7935.0
7930.0
8013.0
8394.0
9877.0
10576.0
11116.0
11606.0
12107.0
12527.0
12655.0
11921.0
11415.0
11030.0
10699.0
10382.0
10104.0
9851.0
9447.0
9274.0
9133.0
9015.0
8907.0
8792.0
8784.0
9017.0
9337.0
9639.0
9854.0
10055.0
10262.0
10519.0
10403.0
10165.0
9904.0
9702.0
9542.0
9243.0
9083.0
9012.0
8955.0
8656.0
8994.0
9369.0
7272.0
10319.0
16616.0
20724.0
18771.0
13164.0
9125.0
8302.0
7717.0
7534.0
7544.0
7610.0
7798.0
7888.0
7932.0
7927.0
7998.0
8331.0
8994.0
9793.0
11066.0
11549.0
12055.0
12492.0
12658.0
12453.0
11465.0
11069.0
10731.0
10416.0
10128.0
9877.0
9660.0
9290.0
9146.0
9023.0
8923.0
8797.0
8716.0
8983.0
9308.0
9610.0
9835.0
10034.0
10235.0
10429.0
10422.0
10196.0
9927.0
9725.0
9557.0
9377.0
9259.0
9012.0
8981.0
8671.0
8923.0
9395.0
8307.0
9775.0
15940.0
20556.0
19243.0
13774.0
9374.0
8370.0
7770.0
7536.0
7539.0
7597.0
7780.0
7854.0
7922.0
7930.0
7979.0
8278.0
8918.0
9710.0
10443.0
11496.0
12005.0
12453.0
12658.0
12495.0
12028.0
11108.0
10768.0
10453.0
10157.0
9906.0
9683.0
9481.0
9159.0
9036.0
8936.0
8810.0
8724.0
8755.0
8957.0
9576.0
9817.0
10013.0
10214.0
10419.0
10516.0
10228.0
9956.0
9749.0
9578.0
9398.0
9274.0
9117.0
8999.0
8703.0
8858.0
9400.0
8493.0
7214.0
15245.0
20312.0
19670.0
14396.0
9675.0
8375.0
8375.0
7539.0
7542.0
7586.0
7762.0
7851.0
7880.0
7919.0
7964.0
8228.0
8837.0
9620.0
10374.0
10959.0
11952.0
12411.0
12655.0
12529.0
12086.0
11572.0
11142.0
10487.0
10180.0
9932.0
9702.0
9502.0
9332.0
9049.0
8947.0
8821.0
8729.0
8740.0
8931.0
9238.0
9796.0
9987.0
10191.0
10398.0
10505.0
10461.0
9982.0
9765.0
9592.0
9416.0
9280.0
9135.0
9017.0
8732.0
8789.0
9384.0
8669.0
7245.0
8834.0
14535.0
20034.0
15022.0
10015.0
8391.0
8396.0
7895.0
7542.0
7570.0
7736.0
7848.0
7875.0
7911.0
7932.0
8184.0
8758.0
9531.0
10298.0
10899.0
11389.0
12364.0
12645.0
12555.0
12139.0
11622.0
11177.0
10838.0
10209.0
9956.0
9720.0
9521.0
9345.0
9183.0
8952.0
8834.0
8732.0
8726.0
8902.0
9198.0
9516.0
9964.0
10173.0
10377.0
10503.0
10477.0
10272.0
10007.0
9607.0
9434.0
9290.0
9156.0
9017.0
9012.0
8734.0
9350.0
8829.0
7314.0
8441.0
13819.0
19610.0
15654.0
10411.0
8422.0
8412.0
7964.0
7552.0
7560.0
7715.0
7848.0
7867.0
7911.0
7935.0
7940.0
8679.0
9447.0
10225.0
10838.0
11342.0
11837.0
12322.0
12584.0
12199.0
11677.0
11221.0
10878.0
10547.0
9982.0
9746.0
9547.0
9363.0
9204.0
9078.0
8962.0
8740.0
8721.0
8879.0
9162.0
9487.0
9746.0
10152.0
10353.0
10500.0
10487.0
10301.0
10041.0
9801.0
9455.0
9301.0
9180.0
9025.0
9020.0
8810.0
9308.0
8976.0
7424.0
8105.0
13116.0
19167.0
20567.0
10849.0
8480.0
8420.0
8032.0
7568.0
7547.0
7552.0
7840.0
7864.0
7909.0
7932.0
7935.0
8108.0
9363.0
10144.0
10783.0
11294.0
11782.0
12278.0
12613.0
12251.0
11727.0
11266.0
10909.0
10579.0
10277.0
9770.0
9565.0
9377.0
9219.0
9083.0
8976.0
8865.0
8719.0
8850.0
9128.0
9455.0
9720.0
9924.0
10330.0
10492.0
10495.0
10327.0
10068.0
9822.0
9649.0
9316.0
9196.0
9031.0
9023.0
8847.0
8666.0
9248.0
7557.0
7817.0
12424.0
18661.0
20726.0
16907.0
8569.0
8420.0
8097.0
7589.0
7542.0
7544.0
7681.0
7861.0
7903.0
7927.0
7932.0
8074.0
8535.0
10062.0
10726.0
11242.0
11724.0
12230.0
12587.0
12626.0
11779.0
11310.0
10943.0
10616.0
10309.0
10028.0
9799.0
9395.0
9235.0
9093.0
8989.0
8876.0
8755.0
8826.0
9093.0
9419.0
9691.0
9909.0
10102.0
10311.0
10500.0
10353.0
10094.0
9843.0
9668.0
9487.0
9209.0
9044.0
9025.0
8879.0
8650.0
9175.0
9204.0
7589.0
11761.0
18102.0
20813.0
17502.0
11829.0
8409.0
8163.0
7625.0
7539.0
7542.0
7660.0
7819.0
7898.0
7927.0
7932.0
8040.0
8472.0
9193.0
9982.0
11184.0
11675.0
12181.0
12561.0
12645.0
12348.0
11357.0
10975.0
10652.0
10340.0
10057.0
9825.0
9602.0
9253.0
9107.0
9002.0
8889.0
8768.0
8713.0
9065.0
9384.0
9670.0
9890.0
10076.0
10293.0
10466.0
10380.0
10120.0
9872.0
9686.0
9508.0
9348.0
9059.0
9020.0
8913.0
8650.0
9099.0
9290.0
7885.0
11127.0
17494.0
20829.0
18071.0
12375.0
8850.0
8396.0
7662.0
7534.0
7544.0
7639.0
7809.0
7864.0
7930.0
7932.0
8016.0
8412.0
9107.0
9901.0
10602.0
11622.0
12125.0
12532.0
12658.0
12393.0
11011.0
10692.0
10369.0
10089.0
9848.0
9626.0
9440.0
9122.0
9015.0
8897.0
8787.0
8713.0
8787.0
9033.0
9644.0
9867.0
10057.0
10272.0
10448.0
10513.0
10149.0
9896.0
9696.0
9529.0
9358.0
9235.0
9078.0
8941.0
8653.0
9017.0
9350.0
8061.0
7295.0
16849.0
20763.0
18598.0
12951.0
9049.0
8380.0
8278.0
7531.0
7547.0
7618.0
7796.0
7859.0
7885.0
7930.0
7995.0
8354.0
9020.0
9822.0
10534.0
11080.0
12073.0
12500.0
12660.0
12435.0
11958.0
11449.0
11053.0
10403.0
10120.0
9869.0
9647.0
9460.0
9285.0
9023.0
8913.0
8800.0
8716.0
8776.0
9002.0
9314.0
9843.0
10036.0
10249.0
10435.0
10519.0
10419.0
9924.0
9717.0
9552.0
9374.0
9251.0
9096.0
9010.0
8669.0
8944.0
9392.0
8242.0
7227.0
9964.0
16176.0
19085.0
13554.0
9285.0
8367.0
8328.0
7751.0
7542.0
7597.0
7783.0
7856.0
7880.0
7927.0
7927.0
8297.0
8936.0
9738.0
10463.0
11030.0
11517.0
12466.0
12658.0
12474.0
12013.0
11496.0
11090.0
10754.0
10146.0
9890.0
9673.0
9476.0
9298.0
9154.0
8928.0
8808.0
8713.0
8761.0
8965.0
9280.0
9589.0
10020.0
10220.0
10416.0
10516.0
10435.0
10214.0
9945.0
9573.0
9390.0
9264.0
9114.0
9012.0
8994.0
8876.0
9405.0
8425.0
7211.0
9447.0
15484.0
20407.0
14178.0
9568.0
8367.0
8370.0
7809.0
7534.0
7584.0
7770.0
7854.0
7877.0
7924.0
7927.0
7969.0
8860.0
9652.0
10393.0
10980.0
11462.0
11966.0
12652.0
12516.0
12068.0
11549.0
11132.0
10789.0
10471.0
9917.0
9696.0
9497.0
9322.0
9170.0
9044.0
8941.0
8721.0
8750.0
8936.0
9251.0
9557.0
9799.0
10196.0
10401.0
10513.0
10450.0
10243.0
9969.0
9757.0
9405.0
9280.0
9130.0
9012.0
9004.0
8719.0
9392.0
8603.0
7232.0
8978.0
14778.0
20113.0
19909.0
9893.0
8380.0
8394.0
7867.0
7542.0
7539.0
7573.0
7848.0
7877.0
7916.0
7930.0
7956.0
8197.0
9563.0
10319.0
10922.0
11407.0
11913.0
12382.0
12642.0
12120.0
11601.0
11169.0
10820.0
10505.0
10199.0
9717.0
9513.0
9340.0
9180.0
9054.0
8952.0
8829.0
8732.0
8907.0
9214.0
9523.0
9778.0
9977.0
10385.0
10505.0
10466.0
10267.0
9995.0
9778.0
9602.0
9290.0
9146.0
9017.0
9015.0
8755.0
8758.0
9366.0
7293.0
8569.0
14073.0
19754.0
20236.0
15442.0
8409.0
8409.0
7937.0
7552.0
7539.0
7565.0
7728.0
7875.0
7909.0
7935.0
7948.0
8155.0
8708.0
10249.0
10865.0
11355.0
11861.0
12338.0
12634.0
12576.0
11659.0
11208.0
10859.0
10542.0
10230.0
9974.0
9534.0
9361.0
9193.0
9070.0
8962.0
8844.0
8742.0
8884.0
9177.0
9492.0
9759.0
9953.0
10154.0
10367.0
10484.0
10293.0
10028.0
9799.0
9623.0
9447.0
9164.0
9025.0
9017.0
8797.0
8713.0
9322.0
8928.0
8213.0
13365.0
19329.0
20498.0
16071.0
10686.0
8415.0
8011.0
7565.0
7544.0
7560.0
7707.0
7843.0
7909.0
7937.0
7937.0
8121.0
8637.0
9390.0
10175.0
11308.0
11806.0
12293.0
12624.0
12603.0
12230.0
11250.0
10899.0
10574.0
10264.0
10002.0
9762.0
9557.0
9209.0
9083.0
8973.0
8860.0
8747.0
8716.0
9141.0
9463.0
9733.0
9932.0
10136.0
10340.0
10490.0
10317.0
10057.0
9817.0
9639.0
9471.0
9311.0
9033.0
9020.0
8837.0
8677.0
9266.0
9062.0
7508.0
12668.0
18839.0
20682.0
16689.0
11153.0
8535.0
8415.0
7581.0
7544.0
7549.0
7681.0
7838.0
7864.0
7935.0
7930.0
8087.0
8561.0
9303.0
10094.0
10744.0
11748.0
12243.0
12603.0
12616.0
12283.0
11764.0
10933.0
10602.0
10296.0
10026.0
9786.0
9581.0
9390.0
9096.0
8983.0
8876.0
8753.0
8713.0
8839.0
9432.0
9707.0
9911.0
10115.0
10317.0
10482.0
10500.0
10086.0
9835.0
9657.0
9487.0
9322.0
9206.0
9038.0
8871.0
8650.0
9201.0
9172.0
7654.0
7665.0
18299.0
20795.0
17295.0
11651.0
8643.0
8412.0
8145.0
7542.0
7544.0
7667.0
7830.0
7864.0
7903.0
7932.0
8055.0
8493.0
9222.0
10015.0
10686.0
11208.0
12196.0
12574.0
12634.0
12335.0
11819.0
11339.0
10967.0
10332.0
10052.0
9812.0
9602.0
9411.0
9251.0
8996.0
8889.0
8766.0
8713.0
8816.0
9073.0
9403.0
9896.0
10091.0
10296.0
10471.0
10508.0
10369.0
9859.0
9678.0
9502.0
9337.0
9222.0
9054.0
9023.0
8645.0
9130.0
9261.0
7822.0
7473.0
11342.0
20831.0
17872.0
12186.0
8787.0
8401.0
8202.0
7644.0
7542.0
7649.0
7817.0
7861.0
7898.0
7927.0
7930.0
8430.0
9141.0
9930.0
10623.0
11153.0
11638.0
12540.0
12645.0
12380.0
11874.0
11386.0
10998.0
10671.0
10076.0
9838.0
9620.0
9429.0
9264.0
9117.0
8897.0
8774.0
8713.0
8792.0
9041.0
9363.0
9649.0
10062.0
10272.0
10458.0
10508.0
10393.0
10141.0
9696.0
9521.0
9353.0
9232.0
9067.0
9020.0
8934.0
9052.0
9329.0
8000.0
7332.0
10728.0
17083.0
20795.0
12752.0
8973.0
8388.0
8257.0
7688.0
7534.0
7628.0
7798.0
7859.0
7890.0
7927.0
7932.0
8003.0
9054.0
9846.0
10560.0
11098.0
11585.0
12091.0
12658.0
12422.0
11929.0
11433.0
11032.0
10710.0
10393.0
9864.0
9641.0
9450.0
9280.0
9130.0
9020.0
8910.0
8713.0
8774.0
9010.0
9327.0
9626.0
9856.0
10256.0
10440.0
10511.0
10416.0
10170.0
9914.0
9712.0
9371.0
9246.0
9088.0
9015.0
8957.0
8664.0
9379.0
8181.0
7243.0
10154.0
16414.0
20679.0
18926.0
9198.0
8375.0
8310.0
7741.0
7531.0
7544.0
7788.0
7861.0
7885.0
7927.0
7932.0
7982.0
8318.0
9765.0
10492.0
11045.0
12036.0
12474.0
12663.0
11992.0
11481.0
11072.0
10747.0
10422.0
10133.0
9657.0
9471.0
9295.0
9146.0
9031.0
8918.0
8803.0
8761.0
8981.0
9290.0
9597.0
9830.0
10020.0
10419.0
10516.0
10432.0
10199.0
9940.0
9728.0
9563.0
9256.0
9109.0
9012.0
8981.0
8685.0
8897.0
8362.0
7206.0
9626.0
15727.0
20491.0
19379.0
13953.0
8367.0
8354.0
7793.0
7531.0
7544.0
7589.0
7770.0
7877.0
7927.0
7930.0
7969.0
8265.0
8886.0
10422.0
10993.0
11486.0
11981.0
12440.0
12658.0
12498.0
11530.0
11116.0
10781.0
10456.0
10167.0
9911.0
9492.0
9311.0
9164.0
9038.0
8934.0
8818.0
8721.0
8949.0
9253.0
9573.0
9807.0
10005.0
10212.0
10406.0
10445.0
10228.0
9966.0
9746.0
9581.0
9400.0
9128.0
9007.0
9002.0
8711.0
8831.0
9403.0
8543.0
9141.0
15022.0
20228.0
19780.0
14584.0
9780.0
8388.0
7848.0
7536.0
7547.0
7576.0
7757.0
7851.0
7922.0
7924.0
7958.0
8218.0
8808.0
9597.0
10941.0
11433.0
11929.0
12401.0
12650.0
12534.0
12102.0
11156.0
10812.0
10492.0
10196.0
9935.0
9712.0
9510.0
9180.0
9049.0
8947.0
8829.0
8726.0
8742.0
9225.0
9539.0
9783.0
9987.0
10186.0
10387.0
10511.0
10262.0
9990.0
9765.0
9605.0
9416.0
9285.0
9012.0
9015.0
8742.0
8774.0
9379.0
8711.0
7266.0
14314.0
19890.0
20126.0
15219.0
10133.0
8396.0
7911.0
7547.0
7542.0
7563.0
7736.0
7846.0
7872.0
7930.0
7953.0
8168.0
8732.0
9510.0
10272.0
10886.0
11874.0
12359.0
12637.0
12569.0
12157.0
11633.0
10844.0
10526.0
10225.0
9959.0
9733.0
9523.0
9350.0
9062.0
8960.0
8839.0
8734.0
8729.0
8889.0
9505.0
9759.0
9964.0
10159.0
10369.0
10503.0
10474.0
10013.0
9788.0
9618.0
9434.0
9298.0
9159.0
9017.0
8776.0
8726.0
9337.0
8871.0
7350.0
8325.0
19484.0
20409.0
15856.0
10537.0
8441.0
8417.0
7979.0
7542.0
7560.0
7717.0
7840.0
7875.0
7911.0
7945.0
8129.0
8661.0
9421.0
10196.0
10830.0
11321.0
12309.0
12621.0
12595.0
12209.0
11690.0
11237.0
10563.0
10251.0
9987.0
9757.0
9544.0
9371.0
9206.0
8973.0
8850.0
8745.0
8719.0
8863.0
9156.0
9471.0
9943.0
10138.0
10351.0
10490.0
10487.0
10311.0
9812.0
9633.0
9458.0
9311.0
9177.0
9028.0
9020.0
8687.0
9285.0
9017.0
7463.0
8008.0
12912.0
20627.0
16480.0
10980.0
8509.0
8417.0
8053.0
7578.0
7555.0
7691.0
7838.0
7872.0
7903.0
7935.0
8095.0
8590.0
9332.0
10123.0
10770.0
11274.0
11772.0
12605.0
12616.0
12259.0
11748.0
11279.0
10917.0
10597.0
10018.0
9778.0
9568.0
9392.0
9222.0
9091.0
8865.0
8758.0
8713.0
8844.0
9120.0
9440.0
9720.0
10120.0
10332.0
10484.0
10503.0
10335.0
10073.0
9652.0
9481.0
9319.0
9196.0
9038.0
9020.0
8858.0
9225.0
9138.0
7602.0
7749.0
12230.0
18496.0
20766.0
11470.0
8606.0
8409.0
8121.0
7599.0
7539.0
7670.0
7833.0
7864.0
7901.0
7935.0
7930.0
8066.0
9248.0
10047.0
10707.0
11224.0
11714.0
12212.0
12631.0
12314.0
11806.0
11321.0
10959.0
10629.0
10317.0
9799.0
9594.0
9405.0
9238.0
9104.0
8991.0
8763.0
8711.0
8826.0
9083.0
9411.0
9691.0
9898.0
10306.0
10474.0
10508.0
10356.0
10107.0
9851.0
9670.0
9329.0
9214.0
9049.0
9015.0
8897.0
8645.0
9235.0
7757.0
7534.0
11562.0
17919.0
20826.0
17670.0
8734.0
8401.0
8186.0
7628.0
7536.0
7542.0
7822.0
7859.0
7895.0
7930.0
7927.0
8037.0
8451.0
9961.0
10642.0
11177.0
11659.0
12162.0
12558.0
12364.0
11858.0
11368.0
10993.0
10660.0
10348.0
10068.0
9615.0
9421.0
9259.0
9117.0
9002.0
8897.0
8774.0
8803.0
9052.0
9379.0
9662.0
9880.0
10076.0
10461.0
10508.0
10382.0
10138.0
9875.0
9689.0
9516.0
9227.0
9059.0
9017.0
8926.0
8645.0
9078.0
7932.0
7379.0
10935.0
17305.0
20816.0
18228.0
12550.0
8394.0
8244.0
7667.0
7536.0
7536.0
7631.0
7809.0
7893.0
7927.0
7930.0
8013.0
8391.0
9086.0
10579.0
11121.0
11601.0
12112.0
12524.0
12652.0
12409.0
11415.0
11027.0
10694.0
10382.0
10094.0
9851.0
9440.0
9277.0
9128.0
9015.0
8907.0
8782.0
8716.0
9020.0
9345.0
9633.0
9864.0
10055.0
10259.0
10511.0
10406.0
10165.0
9898.0
9707.0
9534.0
9361.0
9080.0
9017.0
8952.0
8653.0
9002.0
9361.0
8118.0
10346.0
16653.0
20724.0
18752.0
13135.0
9112.0
8294.0
7720.0
7536.0
7539.0
7618.0
7791.0
7859.0
7927.0
7935.0
7990.0
8333.0
9002.0
9793.0
11066.0
11551.0
12060.0
12487.0
12658.0
12451.0
11971.0
11064.0
10734.0
10416.0
10123.0
9883.0
9654.0
9295.0
9141.0
9028.0
8918.0
8797.0
8719.0
8766.0
9306.0
9607.0
9846.0
10031.0
10241.0
10432.0
10511.0
10186.0
9927.0
9725.0
9552.0
9382.0
9253.0
9015.0
8973.0
8677.0
8926.0
9392.0
8302.0
7214.0
15976.0
20564.0
19230.0
13738.0
9366.0
8370.0
7775.0
7534.0
7544.0
7602.0
7778.0
7861.0
7882.0
7935.0
7972.0
8283.0
8918.0
9710.0
10450.0
11011.0
12008.0
12451.0
12663.0
12487.0
12028.0
11517.0
10773.0
10448.0
10154.0
9906.0
9675.0
9484.0
9308.0
9041.0
8928.0
8816.0
8721.0
8753.0
8962.0
9581.0
9820.0
10010.0
10220.0
10414.0
10513.0
10443.0
9956.0
9741.0
9573.0
9400.0
9266.0
9120.0
8991.0
8703.0
8852.0
9403.0
8485.0
7209.0
9308.0
20328.0
19652.0
14362.0
9668.0
8373.0
8375.0
7833.0
7549.0
7581.0
7759.0
7856.0
7875.0
7924.0
8236.0
8834.0
9626.0
10374.0
10956.0
11449.0
12416.0
12658.0
12524.0
12089.0
11562.0
11140.0
10477.0
10186.0
9927.0
9699.0
9502.0
9322.0
9172.0
8941.0
8829.0
8724.0
8742.0
8931.0
9232.0
9793.0
9993.0
10196.0
10393.0
10513.0
10458.0
10246.0
9757.0
9597.0
9413.0
9280.0
9141.0
9010.0
9010.0
8789.0
9392.0
8656.0
7243.0
8855.0
14561.0
20013.0
14996.0
10007.0
8383.0
8401.0
7890.0
7542.0
7568.0
7743.0
7851.0
7872.0
7922.0
7927.0
8184.0
8755.0
9542.0
10298.0
10904.0
11397.0
11890.0
12639.0
12553.0
12139.0
11614.0
11182.0
10836.0
10511.0
9948.0
9725.0
9521.0
9340.0
9188.0
9054.0
8837.0
8729.0
8737.0
8899.0
9198.0
9518.0
9767.0
10167.0
10374.0
10508.0
10469.0
10277.0
10005.0
9615.0
9429.0
9293.0
9154.0
9015.0
9017.0
8766.0
9356.0
8816.0
7319.0
8454.0
13850.0
19631.0
15633.0
10390.0
8420.0
8417.0
7956.0
7555.0
7544.0
7725.0
7843.0
7872.0
7914.0
7927.0
7945.0
8139.0
9453.0
10220.0
10849.0
11339.0
11837.0
12327.0
12584.0
12191.0
11667.0
11226.0
10867.0
10550.0
10241.0
9751.0
9539.0
9361.0
9204.0
9067.0
8968.0
8737.0
8724.0
8871.0
9167.0
9484.0
9746.0
9951.0
10359.0
10498.0
10482.0
10304.0
10031.0
9801.0
9447.0
9308.0
9172.0
9023.0
9023.0
8803.0
8700.0
8965.0
7421.0
8110.0
13153.0
19188.0
20556.0
16262.0
8480.0
8420.0
8024.0
7573.0
7539.0
7555.0
7835.0
7867.0
7903.0
7930.0
7940.0
8103.0
8614.0
10146.0
10789.0
11287.0
11787.0
12278.0
12610.0
12243.0
11727.0
11266.0
10901.0
10584.0
10270.0
10005.0
9557.0
9382.0
9214.0
9083.0
8981.0
8860.0
8753.0
8850.0
9133.0
9450.0
9725.0
9927.0
10123.0
10487.0
10495.0
10327.0
10060.0
9825.0
9644.0
9468.0
9188.0
9033.0
9017.0
8842.0
8669.0
9243.0
7549.0
7827.0
12464.0
18679.0
20721.0
16876.0
11292.0
8415.0
8097.0
7597.0
7539.0
7552.0
7678.0
7867.0
7898.0
7935.0
7932.0
8074.0
8546.0
9277.0
10728.0
11242.0
11738.0
12228.0
12592.0
12629.0
12293.0
11305.0
10943.0
10618.0
10304.0
10036.0
9793.0
9400.0
9230.0
9099.0
8989.0
8876.0
8763.0
8711.0
9096.0
9419.0
9702.0
9906.0
10104.0
10314.0
10505.0
10348.0
10094.0
9848.0
9660.0
9495.0
9327.0
9046.0
9017.0
8884.0
8650.0
9177.0
9206.0
7605.0
11795.0
18126.0
20821.0
17471.0
11808.0
8687.0
8165.0
7620.0
7539.0
7547.0
7657.0
7830.0
7864.0
7937.0
7927.0
8048.0
8477.0
9193.0
9993.0
11192.0
11680.0
12178.0
12569.0
12639.0
12348.0
11840.0
10980.0
10650.0
10338.0
10062.0
9817.0
9607.0
9248.0
9112.0
8996.0
8892.0
8768.0
8711.0
8813.0
9387.0
9675.0
9885.0
10083.0
10288.0
10466.0
10511.0
10125.0
9867.0
9681.0
9510.0
9337.0
9225.0
9015.0
8915.0
8643.0
9107.0
9287.0
7872.0
7429.0
17523.0
20831.0
18039.0
12356.0
8839.0
8396.0
7654.0
7536.0
7542.0
7639.0
7814.0
7859.0
7895.0
7930.0
8024.0
8412.0
9112.0
9909.0
10600.0
11620.0
12128.0
12537.0
12650.0
12393.0
11892.0
11397.0
10681.0
10372.0
10083.0
9843.0
9628.0
9432.0
9269.0
9007.0
8905.0
8776.0
8713.0
8792.0
9028.0
9644.0
9867.0
10060.0
10264.0
10453.0
10511.0
10395.0
9888.0
9699.0
9529.0
9353.0
9240.0
9070.0
8944.0
8650.0
9028.0
9345.0
8053.0
7303.0
10547.0
20766.0
18574.0
12928.0
9031.0
8386.0
8276.0
7539.0
7539.0
7623.0
7798.0
7859.0
7893.0
7930.0
8000.0
8352.0
9031.0
9822.0
10537.0
11085.0
11567.0
12500.0
12658.0
12437.0
11950.0
11452.0
11051.0
10406.0
10112.0
9869.0
9649.0
9453.0
9287.0
9133.0
8913.0
8792.0
8719.0
8771.0
9002.0
9316.0
9846.0
10034.0
10243.0
10437.0
10508.0
10419.0
10178.0
9720.0
9544.0
9374.0
9251.0
9088.0
9015.0
8965.0
8949.0
9382.0
8239.0
7227.0
9990.0
16215.0
19067.0
13523.0
9272.0
8375.0
8323.0
7754.0
7534.0
7605.0
7778.0
7859.0
7882.0
7924.0
7932.0
8299.0
8947.0
9736.0
10471.0
11030.0
11517.0
12023.0
12660.0
12474.0
12008.0
11499.0
11085.0
10757.0
10141.0
9896.0
9668.0
9476.0
9301.0
9146.0
9036.0
8808.0
8719.0
8753.0
8970.0
9280.0
9586.0
9827.0
10228.0
10419.0
10513.0
10440.0
10207.0
9948.0
9565.0
9395.0
9261.0
9114.0
9012.0
8986.0
8695.0
9403.0
8420.0
7203.0
9476.0
15515.0
20414.0
14141.0
9555.0
8367.0
8362.0
7809.0
7531.0
7544.0
7764.0
7859.0
7875.0
7922.0
7927.0
7964.0
8860.0
9654.0
10398.0
10975.0
11468.0
11966.0
12424.0
12508.0
12065.0
11546.0
11124.0
10791.0
10466.0
10175.0
9691.0
9497.0
9316.0
9167.0
9046.0
8936.0
8721.0
8745.0
8941.0
9243.0
9563.0
9801.0
9998.0
10401.0
10513.0
10453.0
10235.0
9977.0
9751.0
9408.0
9274.0
9133.0
9010.0
9004.0
8721.0
8813.0
8593.0
7227.0
9007.0
14807.0
20131.0
19893.0
14773.0
8378.0
8396.0
7872.0
7539.0
7547.0
7570.0
7851.0
7872.0
7922.0
7927.0
7956.0
8202.0
8784.0
10322.0
10920.0
11415.0
11911.0
12390.0
12647.0
12123.0
11596.0
11169.0
10823.0
10500.0
10207.0
9943.0
9516.0
9332.0
9183.0
9052.0
8949.0
8831.0
8737.0
8907.0
9211.0
9531.0
9775.0
9980.0
10175.0
10511.0
10463.0
10267.0
10000.0
9770.0
9607.0
9421.0
9149.0
9012.0
9015.0
8750.0
8755.0
9371.0
7287.0
8585.0
14099.0
19775.0
20215.0
15408.0
10249.0
8415.0
7932.0
7549.0
7544.0
7730.0
7872.0
7914.0
7927.0
7948.0
8155.0
8708.0
9484.0
10870.0
11360.0
11855.0
12340.0
12629.0
12574.0
11651.0
11208.0
10854.0
10537.0
10230.0
9966.0
9741.0
9356.0
9198.0
9065.0
8962.0
8844.0
8737.0
8729.0
9180.0
9495.0
9754.0
9959.0
10154.0
10367.0
10479.0
10296.0
10023.0
9796.0
9623.0
9442.0
9301.0
9023.0
9023.0
8789.0
8713.0
9324.0
8915.0
8223.0
13397.0
19350.0
20480.0
16045.0
10665.0
8459.0
7998.0
7565.0
7536.0
7557.0
7709.0
7838.0
7869.0
7932.0
7940.0
8113.0
8637.0
9392.0
10175.0
11305.0
11806.0
12293.0
12618.0
12603.0
12222.0
11706.0
10888.0
10574.0
10259.0
9998.0
9765.0
9552.0
9209.0
9078.0
8973.0
8855.0
8745.0
8716.0
8858.0
9460.0
9733.0
9935.0
10131.0
10346.0
10487.0
10317.0
10052.0
9817.0
9636.0
9460.0
9311.0
9183.0
9017.0
8829.0
8679.0
9266.0
9054.0
7500.0
7922.0
18860.0
20674.0
16661.0
11121.0
8535.0
8415.0
7584.0
7536.0
7552.0
7686.0
7835.0
7867.0
7903.0
7935.0
8084.0
8567.0
9308.0
10099.0
10749.0
11753.0
12246.0
12600.0
12621.0
12278.0
11764.0
11289.0
10608.0
10290.0
10026.0
9783.0
9576.0
9395.0
9093.0
8983.0
8873.0
8761.0
8713.0
8839.0
9107.0
9710.0
9911.0
10112.0
10319.0
10479.0
10503.0
10338.0
9838.0
9652.0
9487.0
9322.0
9201.0
9041.0
8871.0
8656.0
9201.0
9170.0
7644.0
7675.0
12023.0
20792.0
17261.0
11625.0
8637.0
8407.0
8142.0
7542.0
7547.0
7662.0
7830.0
7861.0
7901.0
7935.0
8055.0
8496.0
9222.0
10020.0
10684.0
11211.0
11696.0
12576.0
12631.0
12330.0
11816.0
11334.0
10967.0
10327.0
10049.0
9807.0
9599.0
9405.0
9246.0
9109.0
8886.0
8766.0
8711.0
8818.0
9073.0
9400.0
9893.0
10094.0
10298.0
10471.0
10508.0
10364.0
10115.0
9675.0
9508.0
9337.0
9222.0
9052.0
9020.0
8643.0
9133.0
9259.0
7812.0
7487.0
11373.0
17741.0
17843.0
12162.0
8782.0
8401.0
8202.0
7641.0
7539.0
7649.0
7819.0
7861.0
7901.0
7930.0
7930.0
8433.0
9146.0
9938.0
10623.0
11161.0
11641.0
12146.0
12647.0
12380.0
11871.0
11386.0
11004.0
10671.0
10073.0
9835.0
9620.0
9426.0
9264.0
9117.0
9004.0
8776.0
8713.0
8795.0
9041.0
9366.0
9649.0
10068.0
10275.0
10461.0
10508.0
10387.0
10144.0
9880.0
9521.0
9350.0
9235.0
9065.0
9020.0
8934.0
8648.0
9327.0
7992.0
7337.0
10754.0
17111.0
20797.0
12723.0
8960.0
8391.0
8260.0
7686.0
7536.0
7539.0
7801.0
7861.0
7890.0
7924.0
7932.0
8003.0
9057.0
9848.0
10563.0
11103.0
11588.0
12097.0
12511.0
12419.0
11929.0
11431.0
11032.0
10707.0
10393.0
10102.0
9636.0
9447.0
9280.0
9130.0
9020.0
8907.0
8716.0
8776.0
9012.0
9332.0
9626.0
9856.0
10041.0
10443.0
10511.0
10414.0
10167.0
9909.0
9715.0
9371.0
9243.0
9086.0
9017.0
8957.0
8664.0
8976.0
8176.0
7248.0
10180.0
16448.0
20684.0
18902.0
9185.0
8375.0
8307.0
7738.0
7531.0
7544.0
7610.0
7861.0
7882.0
7927.0
7932.0
7982.0
8320.0
8973.0
10495.0
11045.0
11536.0
12039.0
12477.0
12663.0
11989.0
11478.0
11069.0
10744.0
10422.0
10133.0
9885.0
9466.0
9293.0
9143.0
9031.0
8918.0
8803.0
8763.0
8981.0
9290.0
9599.0
9833.0
10020.0
10235.0
10513.0
10429.0
10196.0
9938.0
9725.0
9563.0
9253.0
9107.0
9010.0
8981.0
8682.0
8899.0
9400.0
7209.0
9652.0
15759.0
20501.0
19358.0
13924.0
9453.0
8352.0
7788.0
7531.0
7544.0
7589.0
7772.0
7877.0
7927.0
7927.0
7969.0
8270.0
8889.0
9686.0
10996.0
11486.0
11984.0
12443.0
12658.0
12495.0
11528.0
11114.0
10778.0
10453.0
10165.0
9909.0
9683.0
9308.0
9164.0
9038.0
8934.0
8816.0
8719.0
8753.0
9259.0
9573.0
9807.0
10005.0
10209.0
10406.0
10445.0
10228.0
9964.0
9744.0
9584.0
9400.0
9272.0
9010.0
9002.0
8708.0
8834.0
9400.0
8532.0
9164.0
15056.0
20241.0
19762.0
14556.0
9765.0
8373.0
7843.0
7536.0
7544.0
7576.0
7757.0
7851.0
7919.0
7927.0
7961.0
8215.0
8810.0
9602.0
10348.0
11433.0
11932.0
12401.0
12647.0
12532.0
12099.0
11575.0
10810.0
10492.0
10193.0
9932.0
9710.0
9505.0
9177.0
9049.0
8947.0
8826.0
8724.0
8742.0
8918.0
9539.0
9783.0
9987.0
10183.0
10387.0
10508.0
10256.0
9987.0
9765.0
9599.0
9413.0
9282.0
9141.0
9012.0
8740.0
8776.0
9379.0
8706.0
7266.0
14351.0
19906.0
20113.0
15190.0
10112.0
8396.0
8407.0
7549.0
7542.0
7565.0
7738.0
7846.0
7875.0
7914.0
7953.0
8168.0
8737.0
9510.0
10275.0
10888.0
11879.0
12359.0
12637.0
12566.0
12152.0
11635.0
11195.0
10529.0
10220.0
9959.0
9733.0
9526.0
9353.0
9062.0
8960.0
8837.0
8737.0
8729.0
8892.0
9193.0
9765.0
9964.0
10159.0
10372.0
10500.0
10474.0
10283.0
9791.0
9615.0
9437.0
9298.0
9156.0
9020.0
8776.0
8729.0
9340.0
8868.0
7342.0
8344.0
13643.0
20396.0
15822.0
10516.0
8438.0
8415.0
7982.0
7542.0
7563.0
7715.0
7843.0
7872.0
7909.0
7935.0
8131.0
8664.0
9421.0
10204.0
10830.0
11326.0
12309.0
12624.0
12592.0
12204.0
11690.0
11229.0
10880.0
10249.0
9987.0
9754.0
9547.0
9369.0
9204.0
9078.0
8852.0
8745.0
8719.0
8871.0
9156.0
9471.0
9940.0
10141.0
10351.0
10492.0
10492.0
10306.0
10047.0
9631.0
9460.0
9303.0
9177.0
9028.0
9017.0
8687.0
9287.0
9010.0
7450.0
8027.0
12938.0
19038.0
16443.0
8504.0
8415.0
8048.0
7573.0
7552.0
7688.0
7838.0
7864.0
7903.0
7932.0
7930.0
8590.0
9337.0
10125.0
10765.0
11276.0
11769.0
12262.0
12608.0
12259.0
11743.0
11274.0
10917.0
10589.0
10015.0
9775.0
9571.0
9382.0
9219.0
9091.0
8976.0
8753.0
8713.0
8847.0
9117.0
9445.0
9715.0
10123.0
10325.0
10487.0
10498.0
10330.0
10076.0
9827.0
9479.0
9316.0
9198.0
9033.0
9020.0
8858.0
8658.0
9130.0
7591.0
7757.0
12251.0
18519.0
20758.0
11447.0
8595.0
8415.0
8118.0
7597.0
7542.0
7544.0
7833.0
7861.0
7903.0
7932.0
7932.0
8068.0
9259.0
10044.0
10707.0
11229.0
11714.0
12217.0
12584.0
12317.0
11795.0
11321.0
10954.0
10623.0
10319.0
9801.0
9592.0
9400.0
9243.0
9101.0
8989.0
8884.0
8719.0
8823.0
9086.0
9413.0
9686.0
9904.0
10096.0
10477.0
10503.0
10359.0
10104.0
9851.0
9670.0
9329.0
9214.0
9046.0
9023.0
8889.0
8648.0
9159.0
7754.0
7544.0
11596.0
17953.0
20826.0
17649.0
8724.0
8409.0
8181.0
7633.0
7542.0
7542.0
7657.0
7861.0
7898.0
7927.0
7935.0
8037.0
8456.0
9964.0
10650.0
11177.0
11661.0
12170.0
12553.0
12647.0
11853.0
11371.0
10988.0
10663.0
10351.0
10065.0
9830.0
9421.0
9259.0
9112.0
9004.0
8894.0
8774.0
8800.0
9057.0
9379.0
9662.0
9885.0
10070.0
10285.0
10508.0
10385.0
10131.0
9877.0
9689.0
9513.0
9227.0
9062.0
9020.0
8920.0
8650.0
9080.0
9308.0
7379.0
10969.0
17334.0
20818.0
18210.0
12521.0
8897.0
8236.0
7675.0
7534.0
7544.0
7639.0
7806.0
7893.0
7930.0
7932.0
8011.0
8399.0
9086.0
9885.0
11119.0
11609.0
12115.0
12521.0
12658.0
12403.0
11415.0
11022.0
10699.0
10380.0
10094.0
9854.0
9628.0
9272.0
9128.0
9017.0
8905.0
8789.0
8713.0
9025.0
9340.0
9639.0
9862.0
10052.0
10267.0
10445.0
10403.0
10157.0
9904.0
9702.0
9537.0
9363.0
9238.0
9015.0
8952.0
8658.0
8999.0
9363.0
8108.0
10382.0
16679.0
20737.0
18729.0
13103.0
9107.0
8378.0
7717.0
7531.0
7547.0
7612.0
7793.0
7861.0
7930.0
7927.0
7990.0
8339.0
8996.0
9801.0
10516.0
11557.0
12057.0
12492.0
12660.0
12445.0
11973.0
11064.0
10734.0
10408.0
10128.0
9875.0
9652.0
9463.0
9146.0
9025.0
8918.0
8800.0
8713.0
8771.0
8991.0
9615.0
9838.0
10034.0
10241.0
10429.0
10521.0
10191.0
9927.0
9720.0
9557.0
9374.0
9253.0
9101.0
8978.0
8671.0
8926.0
9395.0
8286.0
7219.0
16000.0
20577.0
19201.0
13711.0
9353.0
8367.0
8341.0
7534.0
7544.0
7594.0
7783.0
7854.0
7880.0
7927.0
7979.0
8283.0
8918.0
9715.0
10440.0
11017.0
12002.0
12458.0
12655.0
12487.0
12026.0
11509.0
11103.0
10445.0
10154.0
9898.0
9681.0
9481.0
9308.0
9033.0
8931.0
8810.0
8719.0
8758.0
8960.0
9274.0
9817.0
10015.0
10217.0
10416.0
10516.0
10440.0
9953.0
9741.0
9578.0
9390.0
9269.0
9117.0
9010.0
8695.0
8860.0
9400.0
8472.0
7211.0
9322.0
15305.0
19625.0
14335.0
9644.0
8373.0
8375.0
7822.0
7539.0
7584.0
7762.0
7851.0
7880.0
7919.0
7927.0
8231.0
8844.0
9628.0
10377.0
10967.0
11449.0
12416.0
12652.0
12524.0
12078.0
11564.0
11142.0
10796.0
10180.0
9927.0
9702.0
9497.0
9329.0
9170.0
8949.0
8821.0
8729.0
8742.0
8931.0
9240.0
9547.0
9993.0
10193.0
10401.0
10508.0
10458.0
10249.0
9977.0
9589.0
9411.0
9280.0
9133.0
9015.0
9007.0
8797.0
9384.0
8650.0
7240.0
8871.0
14603.0
20027.0
14967.0
9987.0
8391.0
8396.0
7890.0
7544.0
7576.0
7741.0
7848.0
7875.0
7914.0
7935.0
7951.0
8766.0
9539.0
10306.0
10907.0
11397.0
11903.0
12367.0
12555.0
12136.0
11620.0
11177.0
10836.0
10513.0
9959.0
9720.0
9521.0
9345.0
9183.0
9062.0
8952.0
8737.0
8729.0
8907.0
9204.0
9518.0
9775.0
10173.0
10380.0
10505.0
10477.0
10272.0
10007.0
9783.0
9434.0
9287.0
9154.0
9020.0
9015.0
8768.0
9356.0
8816.0
7308.0
8477.0
13887.0
19652.0
20310.0
10372.0
8420.0
8409.0
7958.0
7552.0
7544.0
7563.0
7848.0
7869.0
7914.0
7935.0
7940.0
8147.0
9455.0
10233.0
10846.0
11347.0
11842.0
12325.0
12634.0
12194.0
11669.0
11216.0
10872.0
10542.0
10241.0
9744.0
9542.0
9358.0
9198.0
9073.0
8960.0
8852.0
8721.0
8879.0
9162.0
9487.0
9749.0
9948.0
10351.0
10500.0
10484.0
10298.0
10036.0
9796.0
9626.0
9298.0
9175.0
9020.0
9020.0
8808.0
8698.0
9314.0
7411.0
8134.0
13182.0
19214.0
20548.0
16228.0
8472.0
8422.0
8027.0
7565.0
7544.0
7549.0
7701.0
7864.0
7911.0
7930.0
7935.0
8110.0
8611.0
10152.0
10789.0
11297.0
11787.0
12283.0
12613.0
12603.0
11722.0
11263.0
10904.0
10579.0
10277.0
10002.0
9770.0
9374.0
9217.0
9083.0
8976.0
8863.0
8745.0
8852.0
9133.0
9458.0
9723.0
9932.0
10128.0
10332.0
10492.0
10327.0
10065.0
9820.0
9649.0
9468.0
9193.0
9031.0
9025.0
8842.0
8669.0
9253.0
9086.0
7840.0
12490.0
18708.0
20711.0
16849.0
11271.0
8420.0
8089.0
7591.0
7542.0
7544.0
7681.0
7830.0
7903.0
7927.0
7937.0
8071.0
8543.0
9287.0
10070.0
11242.0
11732.0
12236.0
12589.0
12626.0
12293.0
11310.0
10938.0
10616.0
10304.0
10028.0
9799.0
9578.0
9232.0
9093.0
8991.0
8876.0
8758.0
8719.0
9101.0
9421.0
9699.0
9911.0
10099.0
10317.0
10479.0
10353.0
10089.0
9846.0
9665.0
9487.0
9329.0
9044.0
9025.0
8873.0
8653.0
9177.0
9196.0
11827.0
18155.0
20810.0
17447.0
11777.0
8677.0
8407.0
7623.0
7536.0
7544.0
7660.0
7819.0
7867.0
7927.0
7932.0
8040.0
8483.0
9196.0
9990.0
10671.0
11682.0
12181.0
12563.0
12642.0
12338.0
11835.0
10969.0
10652.0
10332.0
10057.0
9817.0
9599.0
9419.0
9107.0
8999.0
8884.0
8771.0
8711.0
8805.0
9067.0
9675.0
9888.0
10081.0
10296.0
10461.0
10508.0
10117.0
9869.0
9675.0
9510.0
9340.0
9219.0
9059.0
8910.0
8648.0
9101.0
9287.0
7861.0
7429.0
17549.0
20831.0
18013.0
12322.0
8834.0
8391.0
8221.0
7531.0
7544.0
7636.0
7812.0
7861.0
7888.0
7924.0
8019.0
8417.0
9109.0
9914.0
10602.0
11140.0
12125.0
12537.0
12650.0
12388.0
11895.0
11391.0
11011.0
10364.0
10089.0
9841.0
9626.0
9440.0
9264.0
9007.0
8899.0
8784.0
8711.0
8795.0
9031.0
9353.0
9864.0
10065.0
10270.0
10448.0
10516.0
10393.0
9893.0
9696.0
9531.0
9353.0
9240.0
9075.0
9012.0
8648.0
9031.0
9350.0
8040.0
7311.0
10576.0
20774.0
18548.0
12901.0
9025.0
8380.0
8278.0
7696.0
7542.0
7618.0
7804.0
7856.0
7890.0
7930.0
7927.0
8357.0
9033.0
9830.0
10537.0
11093.0
11572.0
12508.0
12655.0
12435.0
11950.0
11441.0
11053.0
10715.0
10115.0
9867.0
9654.0
9455.0
9285.0
9141.0
8918.0
8792.0
8713.0
8779.0
9002.0
9324.0
9618.0
10044.0
10246.0
10440.0
10516.0
10414.0
10183.0
9914.0
9550.0
9369.0
9253.0
9088.0
9015.0
8970.0
8957.0
9382.0
8228.0
7238.0
10010.0
16246.0
20640.0
13504.0
9259.0
8375.0
8325.0
7746.0
7536.0
7607.0
7788.0
7859.0
7890.0
7927.0
7932.0
7985.0
8952.0
9744.0
10471.0
11038.0
11517.0
12028.0
12658.0
12477.0
12002.0
11499.0
11087.0
10752.0
10440.0
9896.0
9670.0
9471.0
9306.0
9151.0
9036.0
8931.0
8724.0
8758.0
8970.0
9287.0
9589.0
9827.0
10225.0
10424.0
10511.0
10437.0
10209.0
9943.0
9738.0
9392.0
9264.0
9109.0
9015.0
8986.0
8690.0
9400.0
8415.0
7206.0
9495.0
15557.0
20428.0
19494.0
9539.0
8373.0
8359.0
7806.0
7536.0
7544.0
7767.0
7859.0
7882.0
7922.0
7937.0
7969.0
8252.0
9657.0
10406.0
10980.0
11468.0
11973.0
12427.0
12658.0
12060.0
11549.0
11124.0
10791.0
8970.0
9285.0
9586.0
9827.0
10018.0
10225.0
10511.0
10437.0
10209.0
9943.0
9738.0
9568.0
9390.0
9109.0
9017.0
8989.0
8692.0
8884.0
9400.0
7206.0
9487.0
15544.0
20422.0
19497.0
14123.0
9542.0
8359.0
7806.0
7536.0
7542.0
7591.0
7764.0
7882.0
7922.0
7935.0
7966.0
8252.0
8871.0
9657.0
10980.0
11468.0
11976.0
12427.0
12660.0
12511.0
12063.0
11124.0
10791.0
10471.0
10170.0
9922.0
9689.0
9322.0
9164.0
9046.0
8939.0
8818.0
8726.0
8745.0
9251.0
9563.0
9807.0
9995.0
10207.0
10403.0
10458.0
10235.0
9974.0
9757.0
9586.0
9411.0
9272.0
9015.0
9002.0
8721.0
8813.0
9395.0
8593.0
9025.0
14836.0
20139.0
19882.0
14750.0
9869.0
8378.0
7869.0
7536.0
7547.0
7576.0
7746.0
7854.0
7869.0
7932.0
7953.0
8207.0
8787.0
9568.0
10330.0
11418.0
11916.0
12385.0
12650.0
12540.0
12120.0
11596.0
10823.0
10495.0
10201.0
9945.0
9712.0
9518.0
9180.0
9057.0
8947.0
8834.0
8729.0
8734.0
8913.0
9534.0
9780.0
9974.0
10180.0
10377.0
10508.0
10466.0
10002.0
9770.0
9605.0
9424.0
9282.0
9151.0
9012.0
8753.0
8755.0
9371.0
8758.0
7282.0
8606.0
19785.0
20207.0
15387.0
10241.0
8401.0
8412.0
7547.0
7544.0
7557.0
7728.0
7848.0
7867.0
7916.0
7945.0
8160.0
8708.0
9487.0
10251.0
10867.0
11855.0
12343.0
12631.0
12571.0
12175.0
11646.0
11205.0
10532.0
10233.0
9966.0
9738.0
9534.0
9350.0
9198.0
8960.0
8847.0
8734.0
8729.0
8886.0
9177.0
9754.0
9959.0
10157.0
10361.0
10505.0
10477.0
10293.0
9788.0
9626.0
9440.0
9295.0
9164.0
9015.0
8789.0
8713.0
9329.0
8910.0
7379.0
8239.0
13415.0
20470.0
16021.0
10655.0
8451.0
8422.0
7998.0
7544.0
7555.0
7715.0
7840.0
7869.0
7911.0
7930.0
8118.0
8637.0
9400.0
10173.0
10812.0
11308.0
11803.0
12616.0
12600.0
12225.0
11701.0
11250.0
10888.0
10262.0
9990.0
9765.0
9550.0
9371.0
9211.0
9073.0
8858.0
8745.0
8721.0
8855.0
9146.0
9466.0
9940.0
10131.0
10346.0
10495.0
10490.0
10322.0
10052.0
9641.0
9460.0
9311.0
9185.0
9028.0
9025.0
8826.0
9269.0
9046.0
7500.0
7930.0
12723.0
18884.0
16647.0
11108.0
8530.0
8420.0
8066.0
7586.0
7539.0
7688.0
7835.0
7872.0
7906.0
7935.0
7937.0
8569.0
9311.0
10099.0
10757.0
11258.0
11756.0
12251.0
12626.0
12275.0
11761.0
11292.0
10922.0
10605.0
10020.0
9788.0
9571.0
9395.0
9227.0
9091.0
8986.0
8758.0
8716.0
8837.0
9114.0
9432.0
9710.0
9917.0
10327.0
10479.0
10500.0
10343.0
10078.0
9838.0
9484.0
9327.0
9198.0
9044.0
9020.0
8865.0
8658.0
9167.0
7641.0
7681.0
12052.0
18344.0
20789.0
11604.0
8637.0
8409.0
8139.0
7610.0
7536.0
7549.0
7827.0
7867.0
7895.0
7935.0
7930.0
8053.0
9222.0
10023.0
10692.0
11205.0
11701.0
12576.0
12322.0
11819.0
11334.0
10964.0
10639.0
10322.0
10052.0
9597.0
9413.0
9240.0
9107.0
8994.0
8884.0
8711.0
8818.0
9078.0
9398.0
9686.0
9890.0
10091.0
10469.0
10508.0
10364.0
10110.0
9862.0
9673.0
9337.0
9217.0
9057.0
9017.0
8905.0
8645.0
9130.0
7801.0
7487.0
11397.0
17756.0
20834.0
17822.0
12141.0
8399.0
8202.0
7641.0
7539.0
7547.0
7644.0
7859.0
7893.0
7935.0
7927.0
8034.0
8438.0
9143.0
10626.0
11161.0
11646.0
12146.0
12550.0
12645.0
11874.0
11378.0
11001.0
10671.0
10356.0
10078.0
9830.0
9429.0
9261.0
9122.0
9004.0
8899.0
8779.0
8800.0
9038.0
9369.0
9657.0
9872.0
10070.0
10275.0
10513.0
10385.0
10144.0
9883.0
9694.0
9523.0
9348.0
9070.0
9017.0
8936.0
8645.0
9059.0
9329.0
7348.0
10773.0
17132.0
20802.0
18372.0
12707.0
8952.0
8257.0
7681.0
7539.0
7539.0
7625.0
7804.0
7893.0
7927.0
7930.0
8011.0
8373.0
9059.0
9856.0
11108.0
11588.0
12097.0
12513.0
12650.0
12419.0
11428.0
11035.0
10702.0
10393.0
10102.0
9856.0
9641.0
9280.0
9130.0
9015.0
8913.0
8787.0
8716.0
8779.0
9337.0
9626.0
9854.0
10047.0
10254.0
10448.0
10408.0
10173.0
9906.0
9715.0
9542.0
9366.0
9248.0
9015.0
8960.0
8661.0
8981.0
9371.0
8168.0
10196.0
16472.0
20687.0
18881.0
13295.0
9172.0
8378.0
7733.0
7539.0
7542.0
7612.0
7791.0
7859.0
7890.0
7935.0
7987.0
8318.0
8981.0
9770.0
10495.0
11536.0
12047.0
12479.0
12660.0
12464.0
11984.0
11481.0
10741.0
10427.0
10128.0
9885.0
9660.0
9466.0
9143.0
9033.0
8923.0
8800.0
8719.0
8761.0
8981.0
9597.0
9838.0
10023.0
10233.0
10429.0
10511.0
10196.0
9935.0
9730.0
9557.0
9387.0
9259.0
9104.0
8981.0
8685.0
8905.0
9398.0
8354.0
7209.0
9668.0
20506.0
19345.0
13903.0
9442.0
8373.0
8346.0
7534.0
7544.0
7597.0
7770.0
7861.0
7880.0
7922.0
7969.0
8270.0
8894.0
9686.0
10429.0
10998.0
11992.0
12440.0
12660.0
12495.0
12044.0
11530.0
11108.0
10456.0
10159.0
9911.0
9678.0
9489.0
9311.0
9044.0
8931.0
8818.0
8721.0
8747.0
8957.0
9259.0
9812.0
10002.0
10212.0
10406.0
10513.0
10448.0
10222.0
9746.0
9578.0
9403.0
9269.0
9128.0
9012.0
8711.0
8831.0
9400.0
8530.0
7211.0
9183.0
15080.0
19751.0
14527.0
9751.0
8370.0
8380.0
7848.0
7547.0
7576.0
7754.0
7854.0
7872.0
7922.0
7930.0
8221.0
8813.0
9602.0
10353.0
10941.0
11436.0
11929.0
12650.0
12527.0
12099.0
11575.0
11148.0
10812.0
10191.0
9932.0
9704.0
9508.0
9327.0
9177.0
9052.0
8829.0
8724.0
8740.0
8923.0
9222.0
9544.0
9985.0
10188.0
10387.0
10511.0
10458.0
10251.0
9990.0
9602.0
9419.0
9282.0
9146.0
9012.0
9012.0
8776.0
9384.0
8700.0
7261.0
8745.0
14369.0
19919.0
15169.0
10107.0
8391.0
8409.0
7911.0
7544.0
7547.0
7741.0
7848.0
7872.0
7919.0
7927.0
7951.0
8737.0
9518.0
10277.0
10888.0
11384.0
11879.0
12361.0
12566.0
12157.0
11627.0
11195.0
10844.0
10521.0
9959.0
9733.0
9526.0
9348.0
9193.0
9062.0
8957.0
8732.0
8734.0
8892.0
9190.0
9510.0
9762.0
10162.0
10369.0
10505.0
10474.0
10285.0
10013.0
9786.0
9434.0
9298.0
9162.0
9015.0
9023.0
8774.0
8729.0
8860.0
7345.0
8359.0
13664.0
19521.0
20386.0
10500.0
8433.0
8420.0
7974.0
7560.0
7542.0
7557.0
7840.0
7875.0
7911.0
7932.0
7945.0
8131.0
9432.0
10204.0
10836.0
11329.0
11827.0
12314.0
12621.0
12204.0
11685.0
11234.0
10875.0
10560.0
10251.0
9985.0
9544.0
9371.0
9209.0
9075.0
8973.0
8852.0
8724.0
8868.0
9162.0
9476.0
9741.0
9945.0
10138.0
10495.0
10487.0
10309.0
10041.0
9809.0
9633.0
9308.0
9175.0
9028.0
9020.0
8816.0
8695.0
9290.0
7452.0
8029.0
12970.0
19057.0
20606.0
16425.0
8501.0
8417.0
8042.0
7576.0
7539.0
7552.0
7694.0
7869.0
7901.0
7932.0
7937.0
8095.0
8595.0
9337.0
10773.0
11274.0
11774.0
12264.0
12608.0
12616.0
11743.0
11274.0
10912.0
10592.0
10280.0
10015.0
9778.0
9390.0
9219.0
9088.0
8981.0
8863.0
8758.0
8844.0
9125.0
9445.0
9720.0
9922.0
10117.0
10330.0
10500.0
10332.0
10070.0
9833.0
9649.0
9479.0
9196.0
9038.0
9020.0
8855.0
8666.0
9227.0
9130.0
7764.0
12280.0
18538.0
20755.0
17039.0
11426.0
8595.0
8116.0
7599.0
7539.0
7549.0
7673.0
7833.0
7898.0
7935.0
7930.0
8066.0
8525.0
9253.0
10052.0
11226.0
11719.0
12215.0
12587.0
12629.0
12306.0
11315.0
10954.0
10626.0
10311.0
10041.0
9799.0
9592.0
9238.0
9104.0
8989.0
8881.0
8763.0
8711.0
8826.0
9411.0
9691.0
9901.0
10099.0
10306.0
10474.0
10353.0
10104.0
9851.0
9668.0
9497.0
9327.0
9214.0
9017.0
8892.0
8643.0
9159.0
9227.0
7743.0
11614.0
17966.0
20823.0
17623.0
11952.0
8721.0
8404.0
7628.0
7539.0
7544.0
7654.0
7825.0
7859.0
7930.0
7927.0
8040.0
8456.0
9175.0
9969.0
10650.0
11661.0
12167.0
12561.0
12642.0
12361.0
11853.0
11363.0
10657.0
10348.0
10068.0
9822.0
9613.0
9419.0
9114.0
9002.0
8897.0
8771.0
8713.0
8805.0
9052.0
9662.0
9883.0
10076.0
10280.0
10463.0
10508.0
10133.0
9872.0
9689.0
9516.0
9343.0
9227.0
9059.0
8923.0
8643.0
9083.0
9301.0
7919.0
7387.0
17355.0
20816.0
18186.0
12503.0
8886.0
8394.0
8236.0
7536.0
7539.0
7636.0
7806.0
7859.0
7895.0
7927.0
8016.0
9093.0
9883.0
10587.0
11127.0
12120.0
12527.0
12655.0
12406.0
11908.0
11415.0
11022.0
10382.0
10091.0
9854.0
9633.0
9440.0
9277.0
9015.0
8907.0
8784.0
8719.0
8784.0
9023.0
9348.0
9867.0
10055.0
10264.0
10453.0
10511.0
10403.0
10159.0
9707.0
9531.0
9363.0
9240.0
9078.0
9017.0
8656.0
9007.0
9358.0
8105.0
7277.0
10398.0
16708.0
18711.0
13082.0
9091.0
8380.0
8286.0
7717.0
7542.0
7618.0
7793.0
7861.0
7888.0
7924.0
7932.0
8341.0
9004.0
9799.0
10521.0
11066.0
11554.0
12487.0
12658.0
12443.0
11963.0
11462.0
11056.0
10731.0
10120.0
9877.0
9652.0
9460.0
9287.0
9138.0
9028.0
8797.0
8716.0
8766.0
8996.0
9306.0
9610.0
10028.0
10243.0
10429.0
10513.0
10424.0
10183.0
9927.0
9550.0
9377.0
9248.0
9099.0
9012.0
8970.0
8928.0
9395.0
8286.0
7217.0
9848.0
16024.0
20577.0
13685.0
9343.0
8367.0
8331.0
7767.0
7531.0
7597.0
7778.0
7859.0
7877.0
7924.0
7927.0
7974.0
8918.0
9715.0
10448.0
11011.0
11504.0
12002.0
12451.0
12479.0
12026.0
11509.0
11098.0
10765.0
10440.0
9898.0
9673.0
9484.0
9303.0
9154.0
9033.0
8923.0
8716.0
8753.0
8960.0
9266.0
9584.0
9814.0
10220.0
10411.0
10516.0
10437.0
10214.0
9951.0
9736.0
9392.0
9261.0
9117.0
9007.0
8994.0
8698.0
8855.0
8464.0
7209.0
9345.0
15326.0
20346.0
19612.0
9639.0
8365.0
8373.0
7822.0
7534.0
7544.0
7578.0
7854.0
7875.0
7924.0
7924.0
7961.0
8234.0
9633.0
10377.0
10964.0
11452.0
11950.0
12419.0
12652.0
12081.0
11557.0
11140.0
10796.0
10474.0
10180.0
9699.0
9497.0
9322.0
9172.0
9044.0
8944.0
8823.0
8745.0
8931.0
9240.0
9555.0
9793.0
9993.0
10193.0
10511.0
10450.0
10246.0
9977.0
9757.0
9594.0
9280.0
9135.0
9007.0
9010.0
8724.0
8797.0
9390.0
7240.0
8886.0
14621.0
20042.0
19982.0
14946.0
8383.0
8401.0
7885.0
7544.0
7542.0
7568.0
7746.0
7877.0
7919.0
7930.0
7956.0
8186.0
8766.0
10306.0
10912.0
11399.0
11900.0
12377.0
12642.0
12555.0
11612.0
11179.0
10828.0
10673.0
10209.0
9948.0
9725.0
9348.0
9185.0
9057.0
8957.0
8834.0
8732.0
8902.0
9206.0
9516.0
9775.0
9972.0
10170.0
10382.0
10471.0
10277.0
10002.0
9780.0
9610.0
9426.0
9151.0
9017.0
9015.0
8761.0
8747.0
9356.0
8808.0
8485.0
13916.0
19665.0
20294.0
15578.0
10353.0
8422.0
7953.0
7555.0
7539.0
7563.0
7722.0
7846.0
7909.0
7932.0
7945.0
8142.0
8695.0
9458.0
10230.0
11344.0
11845.0
12327.0
12629.0
12582.0
12183.0
11216.0
10865.0
10547.0
10238.0
9980.0
9746.0
9539.0
9198.0
9073.0
8968.0
8847.0
8745.0
8724.0
9172.0
9489.0
9754.0
9951.0
10152.0
10361.0
10498.0
10298.0
10031.0
9804.0
9626.0
9453.0
9303.0
9170.0
9020.0
8808.0
8706.0
9311.0
8960.0
7411.0
13213.0
19224.0
20543.0
16207.0
10786.0
8477.0
8417.0
7570.0
7542.0
7560.0
7701.0
7846.0
7869.0
7937.0
7937.0
8113.0
8622.0
9377.0
10159.0
10794.0
11795.0
12280.0
12621.0
12605.0
12241.0
11724.0
10907.0
10579.0
10272.0
10007.0
9765.0
9560.0
9379.0
9086.0
8973.0
8863.0
8753.0
8716.0
8855.0
9133.0
9728.0
9927.0
10131.0
10335.0
10487.0
10495.0
10062.0
9820.0
9644.0
9474.0
9308.0
9190.0
9033.0
8844.0
8669.0
9253.0
9086.0
7536.0
7854.0
18724.0
20711.0
16820.0
11258.0
8556.0
8417.0
8092.0
7542.0
7549.0
7681.0
7838.0
7861.0
7903.0
7932.0
8082.0
8543.0
9285.0
10073.0
10731.0
11250.0
12233.0
12595.0
12621.0
12296.0
11774.0
11302.0
10943.0
10304.0
10031.0
9793.0
9586.0
9395.0
9235.0
8983.0
8876.0
8755.0
8716.0
8831.0
9096.0
9426.0
9909.0
10107.0
10311.0
10479.0
10500.0
10348.0
9838.0
9665.0
9489.0
9327.0
9209.0
9038.0
9023.0
8650.0
9185.0
9193.0
7691.0
7618.0
11842.0
18176.0
17423.0
11766.0
8671.0
8412.0
8155.0
7618.0
7542.0
7662.0
7825.0
7864.0
7903.0
7930.0
7932.0
8477.0
9206.0
9995.0
10676.0
11195.0
11680.0
12566.0
12639.0
12343.0
11832.0
11352.0
10972.0
10647.0
10055.0
9820.0
9602.0
9413.0
9253.0
9107.0
8889.0
8766.0
8716.0
8808.0
9067.0
9392.0
9670.0
10081.0
10293.0
10469.0
10505.0
10374.0
10120.0
9867.0
9502.0
9343.0
9219.0
9054.0
9020.0
8907.0
9109.0
9277.0
7861.0
7434.0
11205.0
17578.0
20829.0
12304.0
8826.0
8399.0
8213.0
7657.0
7536.0
7644.0
7812.0
7861.0
7890.0
7927.0
7932.0
8019.0
9117.0
9911.0
10610.0
11140.0
11627.0
12136.0
12534.0
12385.0
11887.0
11399.0
11006.0
10686.0
10367.0
9843.0
9618.0
9437.0
9264.0
9120.0
9012.0
8897.0
8711.0
8787.0
9036.0
9353.0
9644.0
9869.0
10275.0
10453.0
10511.0
10395.0
10144.0
9893.0
9696.0
9356.0
9230.0
9073.0
9015.0
8939.0
8653.0
9345.0
8037.0
7306.0
10600.0
16933.0
20774.0
18532.0
9017.0
8380.0
8273.0
7699.0
7531.0
7544.0
7620.0
7864.0
7885.0
7930.0
7932.0
7998.0
8362.0
9830.0
10542.0
11085.0
11575.0
12076.0
12503.0
12660.0
11950.0
11441.0
11045.0
10720.0
10398.0
10115.0
9647.0
9458.0
9280.0
9138.0
9020.0
8910.0
8797.0
8776.0
9007.0
9319.0
9626.0
9848.0
10041.0
10435.0
10519.0
10416.0
10178.0
9919.0
9712.0
9552.0
9248.0
9093.0
9010.0
8968.0
8666.0
8955.0
9387.0
7238.0
10036.0
16265.0
20648.0
19022.0
13476.0
8370.0
8325.0
7749.0
7534.0
7547.0
7602.0
7882.0
7930.0
7927.0
7985.0
8304.0
8949.0
10474.0
11038.0
11523.0
12026.0
12474.0
12660.0
12474.0
11488.0
11087.0
10752.0
10432.0
10144.0
9890.0
9670.0
9298.0
9154.0
9031.0
8928.0
8805.0
8716.0
8970.0
9287.0
9592.0
9822.0
10020.0
10225.0
10419.0
10432.0
10209.0
9940.0
9733.0
9571.0
9384.0
9109.0
9010.0
8991.0
8687.0
8886.0
9400.0
8401.0
9510.0
15575.0
20438.0
19468.0
14097.0
9526.0
8365.0
7801.0
7536.0
7542.0
7586.0
7772.0
7854.0
7922.0
7930.0
7972.0
8249.0
8871.0
9660.0
10401.0
11465.0
11971.0
12430.0
12652.0
12511.0
12057.0
11127.0
10781.0
10469.0
10170.0
9914.0
9694.0
9489.0
9164.0
9041.0
8941.0
8816.0
8724.0
8747.0
9253.0
9560.0
9807.0
10000.0
10199.0
10406.0
10511.0
10238.0
9966.0
9754.0
9586.0
9403.0
9277.0
9012.0
9002.0
8716.0
8823.0
9392.0
8582.0
7224.0
14875.0
20155.0
19864.0
14723.0
9848.0
8383.0
8388.0
7544.0
7542.0
7578.0
7749.0
7851.0
7877.0
7935.0
7958.0
8202.0
8797.0
9573.0
10335.0
10930.0
11924.0
12388.0
12650.0
12545.0
12112.0
11599.0
10820.0
10503.0
10196.0
9945.0
9712.0
9513.0
9340.0
9059.0
8949.0
8829.0
8732.0
8732.0
8913.0
9217.0
9783.0
9977.0
10180.0
10385.0
10503.0
10469.0
9995.0
9775.0
9599.0
9426.0
9285.0
9146.0
9020.0
8753.0
8763.0
9369.0
8755.0
7277.0
8624.0
19801.0
20197.0
15352.0
10220.0
8407.0
8407.0
7932.0
7547.0
7568.0
7728.0
7851.0
7875.0
7916.0
7945.0
8165.0
8719.0
9489.0
10262.0
10870.0
11368.0
12346.0
12642.0
12571.0
12170.0
11651.0
11200.0
10859.0
10230.0
9972.0
9736.0
9534.0
9353.0
9193.0
8960.0
8847.0
8737.0
8726.0
8892.0
9180.0
9502.0
9959.0
10162.0
10364.0
10503.0
10482.0
10288.0
9793.0
9620.0
9447.0
9298.0
9170.0
9020.0
9017.0
8713.0
9332.0
8907.0
7371.0
8262.0
13452.0
20464.0
15989.0
10637.0
8449.0
8417.0
7998.0
7557.0
7555.0
7707.0
7846.0
7864.0
7911.0
7930.0
7937.0
8640.0
9405.0
10183.0
10812.0
11318.0
11806.0
12621.0
12595.0
12225.0
11701.0
11245.0
10893.0
10563.0
9993.0
9757.0
9555.0
9369.0
9211.0
9078.0
8860.0
8740.0
8719.0
8860.0
9143.0
9471.0
9730.0
10138.0
10340.0
10495.0
10487.0
10314.0
10055.0
9809.0
9460.0
9308.0
9185.0
9025.0
9025.0
8826.0
9277.0
9038.0
7492.0
7945.0
12752.0
18907.0
20653.0
11085.0
8522.0
8420.0
8063.0
7581.0
7542.0
7694.0
7835.0
7867.0
7906.0
7927.0
7935.0
8087.0
9319.0
10099.0
10754.0
11260.0
11751.0
12254.0
12618.0
12275.0
11753.0
11292.0
10922.0
10600.0
10293.0
9786.0
9573.0
9390.0
9230.0
9091.0
8989.0
8873.0
8721.0
8837.0
9114.0
9434.0
9707.0
9922.0
10322.0
10482.0
10498.0
10346.0
10081.0
9838.0
9660.0
9324.0
9201.0
9041.0
9025.0
8860.0
8658.0
9156.0
7639.0
7688.0
12078.0
18372.0
20779.0
17219.0
8629.0
8415.0
8131.0
7612.0
7539.0
7547.0
7825.0
7867.0
7898.0
7930.0
7935.0
8053.0
8506.0
10023.0
10697.0
11208.0
11701.0
12199.0
12574.0
12639.0
11814.0
11334.0
10956.0
10639.0
10322.0
10044.0
9592.0
9413.0
9243.0
9104.0
8999.0
8881.0
8768.0
8813.0
9080.0
9398.0
9683.0
9896.0
10089.0
10466.0
10505.0
10364.0
10107.0
9862.0
9673.0
9500.0
9211.0
9054.0
9020.0
8899.0
8648.0
9130.0
9253.0
7489.0
11431.0
17783.0
20831.0
17796.0
12107.0
8396.0
8194.0
7641.0
7534.0
7547.0
7644.0
7817.0
7890.0
7930.0
7927.0
8029.0
8441.0
9143.0
10629.0
11156.0
11648.0
12146.0
12548.0
12647.0
12367.0
11376.0
10998.0
10673.0
10353.0
10078.0
9830.0
9432.0
9256.0
9120.0
9004.0
8894.0
8779.0
8708.0
9044.0
9363.0
9660.0
9872.0
10070.0
10280.0
10456.0
10382.0
10138.0
9883.0
9689.0
9523.0
9348.0
9070.0
9015.0
8934.0
8648.0
9059.0
9329.0
7972.0
10807.0
17159.0
20805.0
18346.0
12679.0
8947.0
8257.0
7678.0
7536.0
7544.0
7623.0
7806.0
7859.0
7932.0
7927.0
8011.0
8380.0
9062.0
9864.0
11108.0
11593.0
12097.0
12521.0
12655.0
12419.0
11926.0
11038.0
10702.0
10390.0
10107.0
9856.0
9641.0
9447.0
9133.0
9012.0
8910.0
8789.0
8713.0
8784.0
9335.0
9631.0
9851.0
10052.0
10254.0
10445.0
10516.0
10173.0
9904.0
9710.0
9542.0
9363.0
9251.0
9012.0
8962.0
8656.0
8986.0
9374.0
8155.0
7258.0
16503.0
20698.0
18855.0
13266.0
9159.0
8375.0
8307.0
7536.0
7539.0
7610.0
7793.0
7856.0
7888.0
7927.0
7990.0
8318.0
8981.0
9775.0
10495.0
11059.0
12044.0
12479.0
12655.0
12461.0
11981.0
11475.0
10736.0
10427.0
10128.0
9883.0
9660.0
9460.0
9298.0
9028.0
8923.0
8800.0
8721.0
8763.0
8981.0
9599.0
9835.0
10026.0
10230.0
10429.0
10513.0
10429.0
9927.0
9730.0
9557.0
9382.0
9259.0
9099.0
9015.0
8679.0
8910.0
9395.0
8344.0
7211.0
9689.0
20514.0
19324.0
13874.0
9424.0
8373.0
8346.0
7783.0
7539.0
7597.0
7772.0
7856.0
7882.0
7922.0
7972.0
8270.0
8899.0
9689.0
10432.0
11001.0
11486.0
12440.0
12658.0
12495.0
12036.0
11528.0
11108.0
10456.0
10157.0
9911.0
9681.0
9487.0
9314.0
9156.0
8934.0
8880.0
8724.0
8747.0
8957.0
9264.0
9571.0
10000.0
10212.0
10408.0
10508.0
10448.0
10222.0
9746.0
9576.0
9403.0
9269.0
9120.0
9012.0
8991.0
8837.0
9400.0
8525.0
7211.0
9204.0
15117.0
19736.0
14498.0
9736.0
8378.0
7846.0
7536.0
7581.0
7754.0
7859.0
7875.0
7922.0
7932.0
7956.0
8818.0
9605.0
10361.0
10943.0
11439.0
11937.0
12652.0
12529.0
12099.0
11578.0
11148.0
10812.0
10487.0
9935.0
9704.0
9510.0
9327.0
9175.0
9054.0
8831.0
8726.0
8740.0
8928.0
9227.0
9547.0
9791.0
10191.0
10387.0
10513.0
10463.0
10251.0
9993.0
9599.0
9419.0
9280.0
9146.0
9010.0
9010.0
8742.0
9387.0
8692.0
7256.0
8763.0
14404.0
19937.0
20087.0
10089.0
8388.0
8407.0
7906.0
7542.0
7547.0
7738.0
7851.0
7872.0
7922.0
7930.0
7951.0
8181.0
9523.0
10283.0
10893.0
11386.0
11879.0
12364.0
12561.0
12154.0
11625.0
11032.0
10844.0
10519.0
10222.0
9730.0
9529.0
9345.0
9190.0
9062.0
8955.0
8729.0
8734.0
8894.0
9193.0
9513.0
9765.0
9966.0
10369.0
10505.0
10469.0
10280.0
10013.0
9783.0
9618.0
9293.0
9159.0
9012.0
9020.0
8771.0
8732.0
8847.0
7337.0
8375.0
13696.0
19542.0
20370.0
15769.0
8430.0
8420.0
7972.0
7557.0
7542.0
7555.0
7840.0
7872.0
7914.0
7930.0
7945.0
8131.0
8666.0
10201.0
10836.0
11329.0
11827.0
12317.0
12621.0
12589.0
11680.0
11232.0
10875.0
10555.0
10249.0
9982.0
9542.0
9363.0
9206.0
9073.0
8973.0
8850.0
8740.0
8865.0
9156.0
9476.0
9741.0
9945.0
10138.0
10492.0
10484.0
10309.0
10039.0
9807.0
9631.0
9450.0
9175.0
9025.0
9023.0
8810.0
8695.0
9293.0
7447.0
8042.0
13001.0
19078.0
20595.0
16396.0
10917.0
8417.0
8040.0
7576.0
7536.0
7555.0
7696.0
7838.0
7901.0
7932.0
7937.0
8095.0
8598.0
9343.0
10775.0
11279.0
11777.0
12264.0
12608.0
12616.0
12254.0
11274.0
10912.0
10592.0
10277.0
10013.0
9775.0
9387.0
9217.0
9088.0
8981.0
8863.0
8755.0
8716.0
9130.0
9442.0
9720.0
9922.0
10120.0
10332.0
10498.0
10332.0
10070.0
9830.0
9647.0
9476.0
9319.0
9038.0
9020.0
8852.0
8669.0
9230.0
9122.0
7581.0
12314.0
18564.0
20750.0
17007.0
11405.0
8593.0
8113.0
7599.0
7539.0
7552.0
7673.0
7835.0
7867.0
7935.0
7932.0
8068.0
8530.0
9259.0
10057.0
11229.0
11722.0
12217.0
12587.0
12631.0
12306.0
11798.0
10954.0
10623.0
10311.0
10041.0
9799.0
9589.0
9403.0
9104.0
8989.0
8881.0
8763.0
8713.0
8829.0
9413.0
9694.0
9901.0
10102.0
10306.0
10474.0
10505.0
10102.0
9851.0
9668.0
9500.0
9329.0
9211.0
9017.0
8892.0
8645.0
9162.0
9225.0
7738.0
7557.0
17995.0
20826.0
17594.0
11926.0
8713.0
8404.0
7625.0
7539.0
7544.0
7652.0
7825.0
7856.0
7898.0
7930.0
8042.0
8459.0
9177.0
9972.0
10650.0
11182.0
12170.0
12558.0
12639.0
12356.0
11848.0
11360.0
10655.0
10346.0
10065.0
9822.0
9613.0
9416.0
9256.0
8999.0
8897.0
8768.0
8713.0
8805.0
9054.0
9665.0
9883.0
10078.0
10280.0
10463.0
10508.0
10380.0
9872.0
9689.0
9513.0
9340.0
9227.0
9057.0
8920.0
8643.0
9088.0
9301.0
7914.0
7395.0
11017.0
20816.0
18157.0
12477.0
8876.0
8396.0
8234.0
7662.0
7536.0
7636.0
7806.0
7859.0
7895.0
7930.0
8016.0
8396.0
9093.0
9885.0
10589.0
11127.0
11609.0
12524.0
12652.0
12403.0
11903.0
11412.0
11017.0
10380.0
10091.0
9854.0
9631.0
9437.0
9274.0
9122.0
8905.0
8782.0
8716.0
8782.0
9025.0
9348.0
9636.0
10055.0
10264.0
10448.0
10511.0
10406.0
10157.0
9702.0
9529.0
9361.0
9238.0
9075.0
9017.0
8947.0
9010.0
9353.0
8095.0
7277.0
10424.0
16737.0
18687.0
13053.0
9083.0
8380.0
8283.0
7712.0
7534.0
7618.0
7791.0
7859.0
7888.0
7927.0
7932.0
8344.0
9010.0
9804.0
10526.0
11069.0
11559.0
12065.0
12660.0
12443.0
11963.0
11460.0
11053.0
10731.0
10408.0
9877.0
9649.0
9463.0
9287.0
9138.0
9028.0
8797.0
8716.0
8768.0
8999.0
9306.0
9613.0
9843.0
10243.0
10429.0
10513.0
10422.0
10183.0
9927.0
9552.0
9379.0
9251.0
9099.0
9012.0
8973.0
8674.0
9392.0
8276.0
7219.0
9877.0
16058.0
20587.0
13654.0
9329.0
8367.0
8333.0
7764.0
7528.0
7544.0
7778.0
7859.0
7880.0
7927.0
7930.0
7977.0
8291.0
9720.0
10453.0
11017.0
11509.0
